,channel 1,channel 2,channel 3,channel 4,channel 5,channel 6,channel 7,channel 8,channel 9,channel 10,channel 11,channel 12,channel 13,channel 14,channel 15,channel 16,channel 17,channel 18
0,32,31,50,62,98,35,42,40,0.84844970703125,0.11273193359375,-0.485595703125,-0.1778564453125,0.197265625,0.47607421875,-0.19873046875,-4.125,69.5,-193.375
0,35,39,50,121,138,62,45,43,0.84832763671875,0.133056640625,-0.4688720703125,-0.20672607421875,0.01513671875,0.35498046875,-0.1005859375,-2.3125,84.6875,-203.875
0,40,39,42,133,142,61,45,39,0.84820556640625,0.1553955078125,-0.44842529296875,-0.2352294921875,0.515625,0.36181640625,0.58935546875,9.0625,101.875,-214.25
0,40,43,42,135,132,62,42,36,0.84613037109375,0.18353271484375,-0.4259033203125,-0.26263427734375,0.28955078125,0.68017578125,0.23291015625,33.3125,118.0625,-223.9375
0,35,50,46,135,131,71,39,34,0.84259033203125,0.21087646484375,-0.40155029296875,-0.29034423828125,0.48486328125,0.662109375,0.55810546875,31.125,121.0,-230.875
0,41,95,60,130,119,82,36,34,0.83721923828125,0.2381591796875,-0.37567138671875,-0.31817626953125,0.4921875,0.685546875,0.62841796875,30.9375,124.625,-237.1875
0,45,141,107,84,82,70,32,28,0.82989501953125,0.26605224609375,-0.3480224609375,-0.345458984375,0.45947265625,0.65869140625,0.6005859375,34.9375,131.375,-243.375
0,42,151,109,61,70,70,30,29,0.8199462890625,0.296875,-0.31884765625,-0.37127685546875,0.37939453125,0.69921875,0.61279296875,52.8125,141.375,-249.75
0,56,348,201,59,72,69,32,32,0.80865478515625,0.3271484375,-0.2867431640625,-0.39605712890625,0.45751953125,0.6416015625,0.974609375,53.5625,153.875,-254.625
0,58,410,224,61,80,60,30,30,0.79400634765625,0.35888671875,-0.25384521484375,-0.41986083984375,0.37646484375,0.9892578125,0.9091796875,62.5625,158.25,-261.0625
0,59,451,248,69,88,41,31,35,0.77777099609375,0.38922119140625,-0.21795654296875,-0.4427490234375,-0.19140625,0.59326171875,0.41162109375,51.4375,164.0,-259.1875
0,58,445,236,69,90,33,30,36,0.76275634765625,0.4149169921875,-0.18096923828125,-0.46185302734375,0.43798828125,0.896484375,1.2490234375,38.5625,175.25,-246.0
0,58,467,261,74,108,42,33,39,0.7479248046875,0.43804931640625,-0.14251708984375,-0.47796630859375,0.19384765625,1.02099609375,0.79541015625,18.5625,180.5625,-231.6875
0,49,374,226,124,119,49,35,44,0.733642578125,0.45556640625,-0.10113525390625,-0.493896484375,-0.29248046875,0.9892578125,0.31494140625,-20.9375,172.75,-226.875
0,47,316,217,128,113,67,37,48,0.72088623046875,0.46502685546875,-0.05474853515625,-0.51092529296875,-0.669921875,0.810546875,-0.03271484375,-76.625,163.6875,-231.625
0,47,247,192,147,156,121,40,51,0.709716796875,0.46636962890625,-0.0032958984375,-0.5279541015625,-1.02099609375,0.6826171875,-0.130859375,-129.3125,157.1875,-234.4375
0,45,242,195,152,163,176,40,52,0.7001953125,0.4613037109375,0.049560546875,-0.5426025390625,-1.369140625,0.62939453125,0.091796875,-161.1875,148.375,-221.6875
0,48,206,171,182,158,197,38,49,0.6954345703125,0.44879150390625,0.101318359375,-0.55194091796875,-1.5400390625,0.537109375,0.23046875,-199.75,133.3125,-184.5
0,58,194,211,196,154,201,37,43,0.69683837890625,0.4285888671875,0.1514892578125,-0.55474853515625,-1.3447265625,0.525390625,0.48046875,-243.75,120.4375,-143.5625
0,142,194,220,284,162,205,37,49,0.6973876953125,0.4100341796875,0.19439697265625,-0.55474853515625,-0.90576171875,0.14306640625,0.697265625,-209.0,111.5625,-116.375
0,167,233,253,350,146,272,37,49,0.689208984375,0.40771484375,0.224609375,-0.55523681640625,-0.99951171875,-0.08984375,0.84619140625,-79.75,122.6875,-95.125
0,177,241,263,371,130,286,37,48,0.673583984375,0.422119140625,0.23760986328125,-0.5582275390625,-1.18310546875,0.1376953125,0.80078125,58.8125,110.5625,-69.0
0,182,230,261,401,141,314,37,49,0.65496826171875,0.44488525390625,0.24053955078125,-0.5614013671875,-1.11767578125,0.42578125,0.63623046875,127.75,101.25,-47.9375
0,203,212,212,393,138,318,38,51,0.63934326171875,0.4652099609375,0.24072265625,-0.5628662109375,-0.85400390625,0.705078125,0.85107421875,116.875,89.5,-33.5625
0,218,240,263,592,188,323,49,82,0.632080078125,0.4759521484375,0.23675537109375,-0.56378173828125,-0.70751953125,0.6376953125,0.9765625,76.0,63.625,-21.75
0,236,230,254,600,173,255,56,93,0.6240234375,0.48675537109375,0.24658203125,-0.55926513671875,-1.43212890625,0.43798828125,-0.189453125,6.125,41.5,-14.4375
0,243,233,259,615,182,209,63,101,0.62786865234375,0.4801025390625,0.252197265625,-0.5582275390625,-0.69140625,0.33203125,1.01318359375,-40.6875,37.0,-14.0
0,246,235,290,624,202,145,70,106,0.63287353515625,0.47320556640625,0.25079345703125,-0.55914306640625,-0.3173828125,0.4091796875,1.251953125,-17.1875,28.1875,-10.9375
0,282,240,293,756,222,133,72,124,0.6324462890625,0.47454833984375,0.24468994140625,-0.56121826171875,-0.37744140625,0.39990234375,0.8427734375,36.0,15.625,-5.25
0,242,199,240,657,185,125,67,103,0.62542724609375,0.485107421875,0.24066162109375,-0.561767578125,-0.71533203125,0.39306640625,0.1337890625,62.75,14.75,-5.5
0,213,163,221,658,214,148,59,91,0.61444091796875,0.49993896484375,0.23968505859375,-0.561279296875,-1.18408203125,0.28076171875,-0.23974609375,72.9375,14.125,0.9375
0,198,143,235,649,222,151,55,87,0.60595703125,0.50872802734375,0.2425537109375,-0.5614013671875,-1.29443359375,0.13623046875,-0.1357421875,39.25,7.75,-1.0625
0,192,140,192,659,195,175,48,82,0.60284423828125,0.50909423828125,0.2467041015625,-0.5626220703125,-0.96484375,0.00146484375,0.2431640625,4.375,6.9375,-3.0625
0,124,103,187,516,179,172,47,54,0.60223388671875,0.5107421875,0.2451171875,-0.56243896484375,-0.48046875,0.35302734375,0.38330078125,12.4375,12.4375,-4.4375
0,120,96,177,424,173,157,43,52,0.59716796875,0.51629638671875,0.24505615234375,-0.56280517578125,-0.7880859375,0.28466796875,0.21484375,32.875,17.6875,-8.5625
0,118,117,288,422,147,138,46,55,0.59490966796875,0.51715087890625,0.2457275390625,-0.56414794921875,-0.68115234375,0.26513671875,0.43017578125,13.125,14.3125,-12.6875
0,118,112,278,414,124,122,42,47,0.593017578125,0.51611328125,0.2498779296875,-0.565185546875,-0.705078125,0.111328125,0.3525390625,-4.375,15.25,-14.0
0,116,102,277,354,119,83,38,46,0.5882568359375,0.51812744140625,0.253173828125,-0.56683349609375,-0.7431640625,0.07421875,0.31591796875,18.0625,21.8125,-15.75
0,83,108,289,451,116,112,40,51,0.579833984375,0.52606201171875,0.25372314453125,-0.5679931640625,-0.9296875,0.24755859375,0.146484375,49.4375,24.5,-16.3125
0,75,106,289,455,114,117,43,50,0.57373046875,0.5284423828125,0.25616455078125,-0.5709228515625,-1.1962890625,0.11279296875,0.5048828125,31.3125,21.625,-13.875
0,57,72,183,400,90,104,39,43,0.56622314453125,0.5333251953125,0.26275634765625,-0.57086181640625,-1.39111328125,0.0986328125,-0.03173828125,14.4375,17.8125,-13.6875
0,51,70,149,409,103,107,39,41,0.56982421875,0.53057861328125,0.26080322265625,-0.57073974609375,-0.4228515625,0.5126953125,0.73046875,-8.9375,16.875,-9.5
0,46,76,161,433,113,103,39,39,0.56683349609375,0.534423828125,0.26373291015625,-0.5687255859375,-0.8505859375,0.31298828125,-0.01318359375,2.5,14.5,-8.0
0,40,64,131,324,102,69,30,20,0.5555419921875,0.5445556640625,0.27056884765625,-0.56707763671875,-1.38330078125,0.0693359375,-0.57763671875,29.0625,14.25,-12.8125
0,40,60,127,309,102,59,24,18,0.5440673828125,0.55218505859375,0.2764892578125,-0.56793212890625,-1.51220703125,-0.04052734375,-0.2919921875,36.8125,13.8125,-13.6875
0,38,55,107,299,110,59,27,21,0.53619384765625,0.55413818359375,0.2791748046875,-0.57220458984375,-1.2314453125,-0.009765625,0.24951171875,34.1875,10.25,-19.5625
0,36,49,104,261,95,59,25,21,0.5322265625,0.5526123046875,0.2757568359375,-0.57904052734375,-0.71533203125,0.162109375,0.77734375,42.25,8.0625,-22.4375
0,34,38,81,222,90,59,25,24,0.528076171875,0.55377197265625,0.26861572265625,-0.5850830078125,-0.41259765625,0.35546875,0.70068359375,57.3125,8.1875,-22.9375
0,35,43,69,188,96,85,38,38,0.5189208984375,0.5614013671875,0.26361083984375,-0.5882568359375,-0.767578125,0.41650390625,0.09228515625,68.5625,8.3125,-25.3125
0,35,87,75,171,95,104,43,100,0.51031494140625,0.56494140625,0.25860595703125,-0.5946044921875,-0.55078125,0.20556640625,0.34716796875,68.0,3.5625,-29.5625
0,34,88,68,158,84,129,52,112,0.498779296875,0.5709228515625,0.2559814453125,-0.5997314453125,-0.95654296875,0.1875,0.07958984375,69.8125,3.625,-31.9375
0,35,104,72,145,95,129,60,115,0.4859619140625,0.577880859375,0.25225830078125,-0.60516357421875,-0.921875,0.17236328125,0.17333984375,83.1875,12.5,-32.0
0,39,129,78,94,91,131,70,143,0.47149658203125,0.58685302734375,0.2464599609375,-0.6103515625,-0.9228515625,0.22216796875,0.12548828125,100.5,17.8125,-32.0
0,42,131,80,75,104,131,86,222,0.45526123046875,0.598388671875,0.24066162109375,-0.61376953125,-0.765625,0.3388671875,-0.05859375,109.375,32.9375,-32.8125
0,72,116,77,68,110,128,103,269,0.44183349609375,0.609375,0.23297119140625,-0.61572265625,-1.060546875,0.13427734375,0.45068359375,106.0625,35.0,-8.1875
0,74,117,74,68,121,126,107,334,0.42547607421875,0.61663818359375,0.2213134765625,-0.624267578125,-1.06005859375,-0.07421875,0.3427734375,129.625,-9.0625,-23.1875
0,75,103,68,68,117,128,104,341,0.40386962890625,0.624755859375,0.20477294921875,-0.63604736328125,-0.90380859375,0.01806640625,0.21630859375,171.3125,-24.0,-33.875
0,76,71,55,58,127,127,107,368,0.38055419921875,0.63427734375,0.18902587890625,-0.64581298828125,-0.9892578125,0.14599609375,0.05126953125,174.375,-10.75,-38.375
0,83,64,52,62,115,112,101,363,0.35919189453125,0.644287109375,0.1751708984375,-0.65203857421875,-0.99462890625,0.2197265625,-0.04296875,156.8125,4.5625,-31.125
0,80,48,36,73,124,110,99,362,0.3414306640625,0.65423583984375,0.1629638671875,-0.65478515625,-1.01513671875,0.36376953125,-0.0234375,133.625,18.0625,-19.0625
0,91,47,47,99,205,81,94,307,0.3302001953125,0.661376953125,0.1534423828125,-0.65570068359375,-1.00341796875,0.41015625,0.03759765625,91.3125,12.3125,-13.0
0,94,47,55,100,209,76,100,307,0.3216552734375,0.6656494140625,0.1466064453125,-0.65716552734375,-0.935546875,0.39501953125,0.06884765625,66.4375,5.3125,-16.5
0,100,59,58,101,203,76,101,273,0.31585693359375,0.66619873046875,0.14361572265625,-0.66015625,-0.978515625,0.2880859375,0.125,37.25,-6.375,-19.4375
0,95,60,58,95,202,76,92,240,0.3111572265625,0.66400146484375,0.1439208984375,-0.6644287109375,-0.90087890625,0.15869140625,0.185546875,18.5,-12.375,-25.1875
0,76,57,55,85,192,58,78,170,0.30523681640625,0.6617431640625,0.1455078125,-0.66912841796875,-0.86669921875,0.05859375,0.18603515625,18.6875,-11.125,-30.125
0,64,55,46,51,84,57,85,156,0.29644775390625,0.66204833984375,0.14410400390625,-0.673095703125,-0.869140625,0.07470703125,0.1259765625,44.0625,-5.1875,-28.125
0,94,64,40,54,70,52,85,178,0.287353515625,0.66375732421875,0.14239501953125,-0.6756591796875,-0.9326171875,0.1376953125,0.087890625,46.1875,2.1875,-28.75
0,92,49,34,54,77,45,72,199,0.27801513671875,0.6668701171875,0.13848876953125,-0.67730712890625,-0.97216796875,0.16943359375,0.1044921875,57.5625,9.4375,-20.625
0,93,48,43,78,79,40,74,184,0.27105712890625,0.67071533203125,0.1329345703125,-0.67742919921875,-0.9970703125,0.3173828125,0.052734375,53.75,10.1875,-11.9375
0,93,46,45,90,94,40,72,192,0.2686767578125,0.67279052734375,0.1302490234375,-0.6768798828125,-0.96240234375,0.35009765625,0.01611328125,21.0,4.8125,-8.4375
0,95,47,70,131,154,57,63,220,0.26812744140625,0.67327880859375,0.12933349609375,-0.6767578125,-0.93212890625,0.25537109375,0.01953125,5.3125,-1.0625,-3.4375
0,60,31,70,140,160,62,57,191,0.26824951171875,0.67333984375,0.1292724609375,-0.67669677734375,-0.9677734375,0.236328125,0.037109375,0.3125,0.125,0.5
0,55,34,72,140,159,62,66,196,0.26812744140625,0.67376708984375,0.12762451171875,-0.6766357421875,-0.99609375,0.20751953125,0.03466796875,7.0,-2.5,5.1875
0,70,42,69,132,170,65,70,275,0.270751953125,0.674072265625,0.127197265625,-0.67535400390625,-0.943359375,0.2001953125,0.03125,-9.375,1.875,12.8125
0,72,43,70,129,168,66,67,279,0.27447509765625,0.67254638671875,0.13006591796875,-0.6748046875,-0.8857421875,0.04052734375,0.09521484375,-27.1875,0.6875,12.3125
0,88,44,44,82,131,54,66,274,0.27374267578125,0.67132568359375,0.1324462890625,-0.6759033203125,-0.9072265625,-0.03173828125,0.1279296875,-5.6875,-0.0625,-0.4375
0,98,44,41,62,127,50,65,277,0.2691650390625,0.67205810546875,0.1307373046875,-0.67730712890625,-1.0185546875,0.04736328125,0.0859375,27.3125,-0.125,-2.9375
0,96,44,40,58,128,52,57,252,0.2657470703125,0.67340087890625,0.127685546875,-0.67791748046875,-1.046875,0.12548828125,0.07421875,28.0625,1.125,3.3125
0,85,36,33,48,121,46,51,160,0.26336669921875,0.6744384765625,0.12542724609375,-0.67822265625,-1.044921875,0.1337890625,0.05419921875,19.9375,0.6875,4.125
0,84,38,31,34,113,45,53,154,0.26171875,0.67462158203125,0.1239013671875,-0.678955078125,-1.0654296875,0.13037109375,0.07177734375,13.3125,-2.6875,3.25
0,99,56,37,50,212,44,55,125,0.26080322265625,0.67352294921875,0.12371826171875,-0.680419921875,-1.01025390625,0.1005859375,0.08642578125,4.125,-7.9375,0.4375
0,108,78,47,64,236,50,73,157,0.2598876953125,0.671875,0.125732421875,-0.68206787109375,-0.98779296875,0.04931640625,0.08154296875,-4.625,-8.125,-6.125
0,128,81,49,70,260,49,70,155,0.2574462890625,0.6705322265625,0.1279296875,-0.68389892578125,-0.9521484375,0.0107421875,0.11669921875,1.3125,-4.0,-11.0
0,149,92,52,72,261,52,75,150,0.25323486328125,0.66998291015625,0.12841796875,-0.6859130859375,-0.998046875,0.06640625,0.111328125,15.8125,-3.25,-14.9375
0,176,102,54,77,268,55,77,152,0.24993896484375,0.66986083984375,0.12933349609375,-0.68707275390625,-0.99609375,0.14404296875,0.033203125,9.25,-3.3125,-17.375
0,168,91,50,65,193,53,79,169,0.24786376953125,0.6693115234375,0.132080078125,-0.6878662109375,-0.9990234375,0.09814453125,0.05126953125,-2.75,-1.125,-16.625
0,214,81,46,56,171,51,75,159,0.2440185546875,0.6693115234375,0.1334228515625,-0.68896484375,-0.9912109375,0.0830078125,0.0810546875,10.5625,1.4375,-17.6875
0,281,88,48,54,140,69,100,210,0.23992919921875,0.67083740234375,0.1312255859375,-0.6893310546875,-1.01123046875,0.1796875,0.0498046875,26.375,3.5625,-9.5625
0,295,86,46,56,130,69,105,239,0.239013671875,0.672119140625,0.12945556640625,-0.688720703125,-1.00390625,0.248046875,0.048828125,11.125,4.6875,-2.0625
0,308,81,44,52,115,69,106,231,0.24041748046875,0.67254638671875,0.1290283203125,-0.6878662109375,-0.9814453125,0.2392578125,0.03759765625,-4.375,1.4375,1.875
0,342,85,49,69,139,76,110,243,0.2437744140625,0.6712646484375,0.13134765625,-0.68756103515625,-0.99169921875,0.18212890625,0.06982421875,-24.5,-2.75,1.375
0,314,79,44,65,132,71,109,244,0.24725341796875,0.6705322265625,0.133056640625,-0.68670654296875,-0.93408203125,0.134765625,0.06103515625,-21.375,0.125,8.1875
0,281,85,44,63,119,55,100,241,0.249267578125,0.671142578125,0.13323974609375,-0.68536376953125,-0.93408203125,0.10888671875,0.0517578125,-8.875,5.75,11.875
0,259,76,43,60,116,50,100,232,0.25103759765625,0.67205810546875,0.1324462890625,-0.68389892578125,-0.9638671875,0.1591796875,0.072265625,-3.25,7.5,12.3125
0,244,78,45,63,117,46,101,261,0.25439453125,0.672607421875,0.131591796875,-0.68231201171875,-0.9716796875,0.216796875,0.08740234375,-9.875,6.5,15.0625
0,242,79,38,48,78,41,99,271,0.260009765625,0.6712646484375,0.133544921875,-0.68109130859375,-0.99267578125,0.1953125,0.09521484375,-32.0625,0.1875,13.375
0,265,89,44,52,66,50,110,274,0.26629638671875,0.66815185546875,0.13787841796875,-0.680908203125,-0.97802734375,0.08447265625,0.1328125,-44.75,-5.25,11.5625
0,243,91,43,54,66,52,106,257,0.2708740234375,0.6651611328125,0.14111328125,-0.681396484375,-0.984375,0.06591796875,0.13232421875,-33.1875,-8.1875,9.25
0,241,96,43,56,65,52,98,245,0.27435302734375,0.6627197265625,0.14312744140625,-0.681884765625,-1.00048828125,0.08984375,0.1298828125,-23.375,-7.875,8.9375
0,272,120,41,51,58,57,110,310,0.27764892578125,0.6607666015625,0.14471435546875,-0.68218994140625,-1.0146484375,0.11328125,0.11328125,-21.0,-7.125,8.6875
0,229,119,45,60,56,53,133,309,0.28173828125,0.658935546875,0.14715576171875,-0.6817626953125,-1.02099609375,0.1669921875,0.0849609375,-28.125,-5.6875,6.6875
0,235,127,44,62,52,52,139,428,0.2872314453125,0.65679931640625,0.1502685546875,-0.68084716796875,-1.025390625,0.181640625,0.095703125,-37.4375,-4.5,9.25
0,251,126,60,86,58,64,155,503,0.29388427734375,0.653564453125,0.1558837890625,-0.6798095703125,-1.03369140625,0.140625,0.0849609375,-52.9375,-6.3125,6.6875
0,276,137,66,110,70,67,169,507,0.2991943359375,0.6505126953125,0.161376953125,-0.67913818359375,-1.021484375,0.07421875,0.1025390625,-46.25,-5.0625,5.375
0,252,117,70,121,76,68,167,461,0.30218505859375,0.6485595703125,0.16436767578125,-0.67901611328125,-1.046875,0.06787109375,0.09912109375,-25.875,-5.5625,6.8125
0,271,121,79,137,84,84,177,572,0.30438232421875,0.6474609375,0.1654052734375,-0.67877197265625,-1.05810546875,0.1318359375,0.08447265625,-14.125,-5.9375,7.5625
0,270,121,80,137,94,89,180,522,0.30718994140625,0.64764404296875,0.1654052734375,-0.6773681640625,-1.03466796875,0.22607421875,0.0302734375,-12.75,-2.3125,10.4375
0,292,124,85,154,100,84,166,447,0.3118896484375,0.6480712890625,0.16595458984375,-0.67462158203125,-0.9951171875,0.23974609375,0.0244140625,-23.0,2.75,17.6875
0,284,109,90,159,104,83,152,449,0.318359375,0.64794921875,0.16845703125,-0.67108154296875,-0.95556640625,0.22509765625,0.01025390625,-38.75,4.75,18.8125
0,317,112,93,163,106,84,160,492,0.3265380859375,0.6470947265625,0.17236328125,-0.6669921875,-0.921875,0.208984375,0.04638671875,-51.9375,7.5625,21.75
0,315,157,88,154,102,68,129,347,0.335205078125,0.64605712890625,0.17755126953125,-0.662353515625,-0.92919921875,0.20849609375,0.02978515625,-59.5625,9.75,20.25
0,303,153,86,154,94,56,106,298,0.3438720703125,0.64483642578125,0.182861328125,-0.65765380859375,-0.9111328125,0.13232421875,0.05810546875,-59.75,11.75,24.75
0,267,151,103,149,92,60,109,300,0.35028076171875,0.64495849609375,0.18634033203125,-0.653076171875,-0.890625,0.15234375,0.03466796875,-41.75,13.6875,23.125
0,268,155,99,137,94,71,116,294,0.35626220703125,0.64630126953125,0.18951416015625,-0.64764404296875,-0.92578125,0.193359375,-0.01220703125,-38.6875,18.1875,23.6875
0,208,155,104,129,97,69,90,199,0.36346435546875,0.6461181640625,0.194091796875,-0.64239501953125,-0.94189453125,0.20068359375,-0.00732421875,-51.0,13.75,21.1875
0,196,127,105,132,98,71,84,217,0.37127685546875,0.6446533203125,0.200439453125,-0.637451171875,-0.9462890625,0.15771484375,-0.02490234375,-62.1875,9.875,18.125
0,190,119,111,142,123,80,105,207,0.3785400390625,0.6427001953125,0.20794677734375,-0.63275146484375,-0.96826171875,0.10595703125,-0.0302734375,-65.0,10.25,14.5
0,191,133,110,192,142,77,102,193,0.38482666015625,0.64007568359375,0.21527099609375,-0.629150390625,-0.95361328125,0.021484375,0.02978515625,-59.3125,8.1875,13.9375
0,175,133,114,208,144,69,93,177,0.38665771484375,0.6419677734375,0.2213134765625,-0.62396240234375,-0.97509765625,0.1337890625,-0.03515625,-1.75,13.0625,8.5625
0,175,159,166,370,209,87,95,208,0.38812255859375,0.643798828125,0.2225341796875,-0.6207275390625,-1.01611328125,0.2314453125,-0.0283203125,-11.5625,12.375,10.5625
0,174,155,182,385,217,98,145,203,0.3914794921875,0.64324951171875,0.225830078125,-0.61798095703125,-0.9609375,0.18701171875,0.00927734375,-29.5625,7.0,7.75
0,180,178,189,389,212,94,133,193,0.3922119140625,0.6434326171875,0.2286376953125,-0.61627197265625,-1.005859375,0.10400390625,0.01806640625,-14.75,8.625,4.625
0,163,165,201,445,229,103,132,190,0.39263916015625,0.6458740234375,0.22711181640625,-0.61407470703125,-0.9853515625,0.2197265625,0.01318359375,5.75,9.3125,16.0625
0,160,172,259,460,234,108,137,195,0.3951416015625,0.646484375,0.22869873046875,-0.61126708984375,-0.88818359375,0.17431640625,0.01708984375,-17.75,10.375,12.4375
0,173,171,242,395,208,117,143,190,0.39630126953125,0.6473388671875,0.23150634765625,-0.60845947265625,-0.892578125,0.142578125,0.0283203125,-15.9375,16.75,6.125
0,179,181,251,463,234,120,111,172,0.3963623046875,0.64892578125,0.23382568359375,-0.6058349609375,-0.97314453125,0.162109375,0.03369140625,-8.125,19.3125,4.125
0,166,181,268,479,231,122,112,162,0.3963623046875,0.65020751953125,0.2357177734375,-0.60382080078125,-0.99560546875,0.19482421875,0.0517578125,-6.125,16.8125,2.125
0,162,180,255,400,198,112,109,162,0.3956298828125,0.65228271484375,0.23626708984375,-0.601806640625,-1.03515625,0.19580078125,0.03369140625,2.8125,16.375,6.3125
0,157,176,204,391,200,114,104,162,0.39495849609375,0.6556396484375,0.23492431640625,-0.59906005859375,-1.0126953125,0.248046875,-0.0244140625,10.0,16.1875,13.25
0,141,156,243,417,187,92,96,129,0.3953857421875,0.65789794921875,0.23529052734375,-0.59613037109375,-0.97900390625,0.205078125,-0.01708984375,-2.3125,16.0,12.25
0,146,156,241,385,145,79,69,97,0.39508056640625,0.66021728515625,0.23583984375,-0.59356689453125,-0.9833984375,0.2314453125,-0.0068359375,0.5625,17.5,6.625
0,150,147,222,412,154,77,56,100,0.39447021484375,0.6629638671875,0.235595703125,-0.59100341796875,-0.99951171875,0.26025390625,0.00244140625,5.8125,18.875,7.875
0,199,223,230,488,194,104,234,154,0.39556884765625,0.66461181640625,0.2352294921875,-0.58856201171875,-0.99755859375,0.29931640625,0.02197265625,-2.25,13.5625,9.75
0,230,223,220,493,188,106,243,152,0.39971923828125,0.66326904296875,0.23797607421875,-0.586181640625,-0.99609375,0.30078125,0.025390625,-31.0625,6.5,4.3125
0,249,235,201,567,249,122,268,196,0.40350341796875,0.66162109375,0.2403564453125,-0.58447265625,-0.9248046875,0.1748046875,0.0732421875,-27.25,5.875,9.8125
0,232,220,207,575,272,138,283,216,0.40423583984375,0.66156005859375,0.24127197265625,-0.58367919921875,-0.86767578125,0.1240234375,0.03515625,-6.625,5.625,7.4375
0,228,215,204,546,272,153,290,217,0.40216064453125,0.66253662109375,0.24163818359375,-0.5838623046875,-0.89404296875,0.17626953125,-0.00341796875,9.0,5.875,-3.5
0,186,153,291,518,256,136,186,184,0.40008544921875,0.66473388671875,0.2415771484375,-0.582763671875,-0.8955078125,0.22607421875,-0.04150390625,10.75,11.5,-0.8125
0,147,150,322,552,261,130,176,184,0.399658203125,0.6661376953125,0.2427978515625,-0.58099365234375,-0.900390625,0.25146484375,-0.0078125,-1.875,14.4375,-1.5
0,108,132,306,428,190,117,138,136,0.39898681640625,0.66741943359375,0.243896484375,-0.57952880859375,-0.892578125,0.23876953125,-0.01025390625,0.0,13.4375,-1.75
0,111,159,300,369,175,116,109,105,0.39739990234375,0.6697998046875,0.24407958984375,-0.5777587890625,-0.927734375,0.24755859375,-0.021484375,8.375,16.6875,0.75
0,106,156,321,388,181,97,93,92,0.395263671875,0.67242431640625,0.2449951171875,-0.5758056640625,-0.99365234375,0.2666015625,-0.04150390625,8.125,20.0625,-3.375
0,103,143,242,368,178,100,79,86,0.3939208984375,0.6748046875,0.24603271484375,-0.573486328125,-1.03564453125,0.2958984375,-0.0849609375,2.875,17.5,-1.6875
0,116,220,220,307,175,109,75,82,0.39453125,0.67559814453125,0.24847412109375,-0.57110595703125,-1.03857421875,0.2509765625,-0.06005859375,-12.375,15.1875,0.1875
0,113,234,223,326,209,117,71,75,0.39617919921875,0.67510986328125,0.25140380859375,-0.5692138671875,-1.02880859375,0.181640625,0.00390625,-19.0625,13.125,3.1875
0,106,227,267,404,204,109,64,67,0.395751953125,0.67633056640625,0.2529296875,-0.5673828125,-0.9853515625,0.1650390625,-0.06396484375,-3.75,13.8125,4.4375
0,115,266,352,535,264,129,67,67,0.39544677734375,0.6783447265625,0.2532958984375,-0.5650634765625,-0.986328125,0.2509765625,-0.07177734375,0.5,15.0625,6.0625
0,116,268,359,522,295,159,74,70,0.396728515625,0.6805419921875,0.25390625,-0.56121826171875,-1.015625,0.3486328125,-0.1123046875,-8.25,17.75,8.25
0,102,217,367,559,347,176,74,68,0.40087890625,0.68115234375,0.25518798828125,-0.55694580078125,-1.0419921875,0.3427734375,-0.1162109375,-25.875,12.1875,14.75
0,104,202,360,555,342,183,78,66,0.40692138671875,0.6793212890625,0.25946044921875,-0.55279541015625,-1.02587890625,0.2294921875,-0.1005859375,-48.4375,8.5625,13.3125
0,104,193,337,597,416,191,79,59,0.41229248046875,0.6761474609375,0.2652587890625,-0.5499267578125,-0.970703125,0.052734375,-0.0771484375,-52.0625,5.5,10.625
0,87,161,318,559,466,237,85,62,0.41387939453125,0.67498779296875,0.26812744140625,-0.54876708984375,-0.9384765625,0.1083984375,-0.10400390625,-21.125,1.625,5.0
0,104,182,326,636,477,257,82,73,0.41357421875,0.67535400390625,0.2684326171875,-0.54840087890625,-1.01318359375,0.24853515625,-0.13623046875,-1.125,-1.5625,1.375
0,106,170,311,617,445,255,78,72,0.415771484375,0.672607421875,0.27227783203125,-0.5482177734375,-0.99267578125,0.11328125,-0.07177734375,-28.4375,-3.0625,-1.5
0,111,162,316,604,451,254,76,72,0.41497802734375,0.67352294921875,0.2674560546875,-0.55010986328125,-1.0107421875,0.24658203125,-0.0146484375,23.6875,-12.1875,15.25
0,113,159,299,524,389,256,74,72,0.41357421875,0.67730712890625,0.26153564453125,-0.54937744140625,-0.75341796875,0.43896484375,-0.16064453125,30.8125,-5.0,10.5625
0,113,125,190,481,278,204,65,65,0.41748046875,0.676025390625,0.26318359375,-0.547119140625,-0.86669921875,0.43603515625,-0.09375,-27.0625,-0.5625,-3.1875
0,104,86,201,459,297,173,62,56,0.42352294921875,0.67254638671875,0.26568603515625,-0.5455322265625,-0.92041015625,0.28662109375,0.0400390625,-40.1875,-2.0625,6.375
0,102,106,246,447,296,245,68,56,0.42974853515625,0.66839599609375,0.2691650390625,-0.54412841796875,-0.8486328125,0.2158203125,0.00439453125,-46.75,-6.0,5.375
0,93,113,292,496,293,254,69,59,0.43487548828125,0.66351318359375,0.2738037109375,-0.543701171875,-0.8076171875,0.1064453125,0.0224609375,-46.0,-6.75,0.3125
0,82,111,325,518,307,253,74,58,0.43695068359375,0.661865234375,0.27520751953125,-0.5433349609375,-0.84716796875,0.20654296875,-0.00439453125,-16.5625,-2.0,2.25
0,109,135,345,499,317,276,80,80,0.43841552734375,0.662841796875,0.27459716796875,-0.54132080078125,-0.92236328125,0.34228515625,-0.0712890625,-5.1875,3.8125,8.5625
0,140,140,320,418,256,263,84,75,0.4427490234375,0.6627197265625,0.275390625,-0.5374755859375,-0.96337890625,0.41455078125,-0.078125,-26.0,6.1875,11.625
0,149,132,278,396,243,185,87,72,0.4500732421875,0.66058349609375,0.27972412109375,-0.53179931640625,-0.92041015625,0.36279296875,-0.0986328125,-56.5625,9.5625,12.125
0,148,131,226,320,244,200,89,74,0.45806884765625,0.6572265625,0.285400390625,-0.5260009765625,-0.89404296875,0.2578125,-0.0341796875,-66.0625,12.9375,14.0
0,151,137,199,250,209,206,95,81,0.46435546875,0.653076171875,0.291259765625,-0.52252197265625,-0.9228515625,0.1650390625,0.02587890625,-56.9375,9.0,7.75
0,134,114,162,160,407,277,116,200,0.46917724609375,0.64892578125,0.2940673828125,-0.521728515625,-1.0087890625,0.2255859375,0.06884765625,-37.125,-4.375,5.25
0,95,100,152,148,445,299,117,215,0.47357177734375,0.64642333984375,0.2928466796875,-0.52154541015625,-0.9990234375,0.30419921875,0.1083984375,-17.5,-9.8125,15.0625
0,77,102,158,169,449,300,112,217,0.4771728515625,0.64300537109375,0.29205322265625,-0.52294921875,-0.95849609375,0.24609375,0.0263671875,-17.1875,-21.75,8.5
0,80,117,185,185,445,284,114,223,0.47930908203125,0.64105224609375,0.28973388671875,-0.52471923828125,-0.9169921875,0.1923828125,-0.0078125,-3.875,-23.625,14.0
0,113,139,184,211,464,275,106,224,0.47918701171875,0.64111328125,0.28729248046875,-0.52606201171875,-0.89453125,0.14306640625,-0.0625,8.6875,-16.1875,14.875
0,116,162,304,289,335,191,76,125,0.4776611328125,0.6441650390625,0.28271484375,-0.5262451171875,-0.876953125,0.34228515625,-0.09326171875,25.8125,-8.25,13.25
0,113,164,326,315,290,163,79,154,0.4786376953125,0.64544677734375,0.281494140625,-0.5244140625,-0.93017578125,0.38818359375,-0.1015625,-2.0625,-1.8125,9.75
0,115,163,330,343,350,187,90,156,0.4815673828125,0.6431884765625,0.28594970703125,-0.5220947265625,-0.9892578125,0.2509765625,-0.1201171875,-37.0,0.75,0.875
0,119,159,342,447,499,253,97,152,0.48345947265625,0.639404296875,0.29339599609375,-0.5208740234375,-1.0361328125,0.08056640625,-0.05859375,-42.75,6.125,-7.125
0,85,140,360,485,542,260,96,148,0.48040771484375,0.63958740234375,0.299072265625,-0.520263671875,-1.0146484375,0.09228515625,-0.0966796875,-8.4375,17.0,-12.5625
0,81,117,295,472,530,258,106,144,0.47406005859375,0.6441650390625,0.30023193359375,-0.519775390625,-1.02001953125,0.205078125,-0.11767578125,29.1875,22.1875,-6.25
0,90,131,329,528,567,315,119,98,0.467529296875,0.65118408203125,0.29766845703125,-0.5184326171875,-0.98779296875,0.349609375,-0.12109375,46.4375,23.75,3.0
0,91,127,327,508,542,324,124,105,0.46240234375,0.657470703125,0.2950439453125,-0.51654052734375,-0.94580078125,0.36767578125,-0.12548828125,38.875,21.5,5.5
0,97,128,320,448,438,306,117,125,0.45770263671875,0.66278076171875,0.292724609375,-0.51531982421875,-0.91357421875,0.36328125,-0.0947265625,35.8125,19.125,2.3125
0,95,125,296,426,453,310,120,135,0.453125,0.66796875,0.2899169921875,-0.51416015625,-0.90771484375,0.36572265625,-0.14501953125,35.75,14.125,4.0
0,93,119,276,396,460,324,120,136,0.45086669921875,0.67156982421875,0.28839111328125,-0.5123291015625,-0.89697265625,0.4189453125,-0.1142578125,19.0,14.1875,1.75
0,90,130,255,318,504,285,111,132,0.45111083984375,0.67333984375,0.28802490234375,-0.510009765625,-0.97509765625,0.40478515625,-0.0732421875,1.1875,12.9375,5.625
0,90,144,248,311,495,260,112,152,0.45355224609375,0.6729736328125,0.28826904296875,-0.50823974609375,-0.953125,0.32421875,0.03173828125,-11.8125,9.125,9.75
0,94,164,216,270,467,222,134,210,0.45458984375,0.67254638671875,0.28631591796875,-0.50897216796875,-0.951171875,0.27099609375,0.09228515625,5.375,-0.0625,11.0
0,109,209,231,226,395,223,134,211,0.45526123046875,0.6715087890625,0.28179931640625,-0.51226806640625,-1.05859375,0.32470703125,0.11865234375,17.125,-15.9375,11.5
0,120,228,217,217,390,198,150,235,0.45947265625,0.6689453125,0.27618408203125,-0.51483154296875,-0.92919921875,0.40771484375,0.07666015625,0.9375,-30.9375,17.8125
0,128,216,151,169,294,196,200,271,0.4664306640625,0.66473388671875,0.272216796875,-0.51611328125,-0.75048828125,0.36572265625,0.0322265625,-22.5625,-34.6875,19.375
0,132,215,157,173,319,238,229,318,0.47113037109375,0.65948486328125,0.2708740234375,-0.519287109375,-0.736328125,0.14794921875,0.0634765625,-21.4375,-33.625,9.9375
0,125,196,152,156,339,245,225,292,0.47052001953125,0.65667724609375,0.27020263671875,-0.5238037109375,-0.80029296875,0.060546875,-0.02734375,3.25,-27.75,-1.0625
0,122,151,93,128,335,228,232,313,0.46807861328125,0.6573486328125,0.2674560546875,-0.52655029296875,-0.8671875,0.29150390625,-0.056640625,22.3125,-14.9375,-2.4375
0,126,120,91,114,312,239,256,378,0.4676513671875,0.65869140625,0.26507568359375,-0.52642822265625,-1.05322265625,0.46875,-0.0869140625,10.375,-6.5625,4.0625
0,118,113,90,107,278,226,238,366,0.47137451171875,0.6561279296875,0.26708984375,-0.5252685546875,-1.02294921875,0.30322265625,-0.0927734375,-30.9375,-9.625,6.9375
0,114,97,79,103,241,178,204,354,0.47320556640625,0.6534423828125,0.2703857421875,-0.5252685546875,-0.8740234375,0.14892578125,-0.09912109375,-26.4375,-8.25,-0.0625
0,111,87,79,101,209,159,200,355,0.4708251953125,0.6556396484375,0.27117919921875,-0.52435302734375,-0.81640625,0.20556640625,-0.15087890625,7.6875,6.25,0.9375
0,122,86,75,96,204,167,203,349,0.4681396484375,0.658935546875,0.2716064453125,-0.52227783203125,-0.89111328125,0.37646484375,-0.13037109375,11.75,15.25,-3.0
0,122,103,79,97,259,238,229,331,0.4676513671875,0.6602783203125,0.272216796875,-0.52069091796875,-0.9580078125,0.39599609375,-0.0341796875,1.0,11.4375,-1.125
0,123,102,96,162,258,247,243,378,0.46917724609375,0.65948486328125,0.27197265625,-0.5205078125,-1.0068359375,0.4169921875,0.02490234375,-6.375,-1.875,0.625
0,135,111,99,175,258,243,246,347,0.47174072265625,0.6573486328125,0.27044677734375,-0.52166748046875,-0.9970703125,0.36767578125,0.0302734375,-8.0625,-16.0,6.25
0,154,132,95,167,247,242,241,390,0.47467041015625,0.6534423828125,0.26971435546875,-0.5242919921875,-1.015625,0.27001953125,0.0791015625,-13.5,-22.5625,4.5
0,269,179,111,177,231,235,243,433,0.47601318359375,0.6502685546875,0.2686767578125,-0.527587890625,-1.0283203125,0.1982421875,0.0751953125,-4.0,-22.8125,5.1875
0,413,231,125,187,164,137,231,460,0.4752197265625,0.64862060546875,0.26708984375,-0.53118896484375,-1.0419921875,0.16796875,0.072265625,10.25,-17.6875,4.4375
0,477,266,125,138,176,121,202,426,0.472412109375,0.6500244140625,0.26434326171875,-0.53326416015625,-1.015625,0.24658203125,0.03125,26.1875,-5.8125,5.625
0,534,335,137,125,178,120,209,495,0.468994140625,0.654052734375,0.25958251953125,-0.53369140625,-1.09912109375,0.39599609375,0.07373046875,40.375,7.125,11.875
0,614,375,154,136,170,132,242,510,0.464599609375,0.65948486328125,0.25518798828125,-0.53302001953125,-1.109375,0.359375,-0.0712890625,41.6875,9.25,15.625
0,625,378,147,149,180,155,263,552,0.4625244140625,0.66143798828125,0.25164794921875,-0.53399658203125,-1.0478515625,0.2978515625,0.02197265625,26.0625,-2.5,12.75
0,636,421,147,157,195,243,292,605,0.462158203125,0.66180419921875,0.2471923828125,-0.5360107421875,-0.93603515625,0.37939453125,-0.0361328125,18.0,-20.25,9.0
0,721,448,151,187,178,243,312,695,0.46234130859375,0.66094970703125,0.244140625,-0.5382080078125,-0.88525390625,0.37890625,-0.03466796875,8.1875,-22.0,1.75
0,720,476,171,193,178,251,328,702,0.46112060546875,0.662109375,0.24139404296875,-0.53912353515625,-0.93408203125,0.32373046875,-0.07177734375,15.75,-10.6875,7.5625
0,678,464,187,206,191,274,359,763,0.460205078125,0.66302490234375,0.238525390625,-0.5400390625,-0.97705078125,0.3720703125,-0.06201171875,14.1875,-11.625,6.25
0,746,482,191,206,177,265,380,771,0.460693359375,0.6632080078125,0.23687744140625,-0.5401611328125,-0.96044921875,0.3759765625,-0.08837890625,1.375,-11.375,7.1875
0,733,490,199,210,165,184,401,907,0.46221923828125,0.66070556640625,0.238525390625,-0.5411376953125,-0.97900390625,0.27197265625,-0.05078125,-17.625,-13.25,-1.3125
0,704,472,215,203,150,189,473,942,0.4622802734375,0.65887451171875,0.24017333984375,-0.5426025390625,-0.99365234375,0.22265625,-0.0478515625,-9.75,-11.1875,-2.9375
0,795,468,199,218,196,189,555,1031,0.459716796875,0.65911865234375,0.24127197265625,-0.54400634765625,-0.98779296875,0.19677734375,-0.0654296875,6.875,-3.375,-4.5
0,821,476,181,223,210,162,543,1042,0.4559326171875,0.66180419921875,0.240234375,-0.54437255859375,-0.921875,0.3173828125,-0.083984375,23.0,3.25,-3.9375
0,778,636,229,263,249,231,623,1132,0.451171875,0.664306640625,0.239501953125,-0.545654296875,-0.927734375,0.31005859375,-0.0712890625,26.875,2.5,-10.5
0,795,670,235,288,280,348,688,1070,0.447998046875,0.666259765625,0.23779296875,-0.546630859375,-0.95458984375,0.408203125,-0.0185546875,23.5625,1.4375,-7.75
0,828,728,256,313,320,380,721,1093,0.448974609375,0.6658935546875,0.236572265625,-0.54681396484375,-0.88671875,0.38232421875,0.10400390625,1.75,0.5625,2.25
0,741,790,266,326,309,396,663,999,0.4503173828125,0.6661376953125,0.2333984375,-0.5467529296875,-0.7333984375,0.390625,0.07177734375,6.875,-4.75,8.9375
0,772,820,297,337,303,438,681,984,0.4493408203125,0.6680908203125,0.22784423828125,-0.54754638671875,-0.63623046875,0.3544921875,-0.03369140625,26.3125,-12.0,11.0
0,825,784,330,357,320,415,654,898,0.44732666015625,0.66998291015625,0.2230224609375,-0.54888916015625,-0.880859375,0.4462890625,0.0615234375,30.75,-5.125,3.75
0,779,883,444,362,320,351,569,893,0.44952392578125,0.66876220703125,0.2216796875,-0.549072265625,-1.0322265625,0.42578125,0.08203125,-5.125,-6.0,7.875
0,707,882,456,372,321,320,508,770,0.45001220703125,0.66827392578125,0.219482421875,-0.55010986328125,-1.07177734375,0.3427734375,0.0283203125,5.5625,-10.5625,11.4375
0,764,882,542,366,316,314,526,843,0.45172119140625,0.6671142578125,0.21649169921875,-0.55133056640625,-1.0126953125,0.30419921875,0.03173828125,2.0,-17.5,18.125
0,756,873,637,410,339,264,510,836,0.45147705078125,0.666748046875,0.214111328125,-0.55291748046875,-1.01220703125,0.19140625,0.10205078125,11.5,-7.75,17.1875
0,652,866,622,376,325,285,486,775,0.4490966796875,0.6678466796875,0.21051025390625,-0.554931640625,-0.912109375,0.201171875,0.05712890625,27.0625,-8.1875,12.5625
0,668,773,558,368,310,283,481,709,0.4495849609375,0.66943359375,0.2052001953125,-0.5545654296875,-0.73681640625,0.39306640625,0.0517578125,19.5625,-5.3125,18.5
0,695,791,576,335,279,333,440,829,0.45050048828125,0.67138671875,0.2012939453125,-0.55291748046875,-0.5185546875,0.3330078125,-0.0166015625,10.9375,-0.4375,16.8125
0,643,741,555,336,335,326,399,753,0.4527587890625,0.6719970703125,0.19915771484375,-0.55108642578125,-0.4833984375,0.3544921875,0.0546875,-1.1875,3.8125,11.1875
0,580,733,441,252,301,314,368,711,0.453125,0.67205810546875,0.1978759765625,-0.55120849609375,-0.64404296875,0.3388671875,0.0654296875,4.3125,-0.6875,1.5625
0,560,635,413,236,266,276,271,695,0.45556640625,0.6715087890625,0.19415283203125,-0.55120849609375,-0.6123046875,0.41455078125,0.03173828125,1.0,-13.0,12.0
0,501,534,391,211,408,240,207,629,0.45977783203125,0.6710205078125,0.19091796875,-0.54937744140625,-0.59228515625,0.37939453125,0.09326171875,-7.3125,-2.8125,22.3125
0,421,401,320,227,474,148,151,471,0.464599609375,0.67034912109375,0.19207763671875,-0.54571533203125,-0.8115234375,0.3935546875,0.09521484375,-25.9375,14.3125,18.125
0,334,282,188,207,470,117,142,438,0.46441650390625,0.669921875,0.20025634765625,-0.54345703125,-1.0634765625,0.1591796875,-0.02587890625,-29.5625,26.0625,-6.5625
0,271,200,146,217,478,92,142,397,0.46514892578125,0.6678466796875,0.2080078125,-0.54248046875,-0.9306640625,0.24609375,-0.00634765625,-33.9375,15.5625,-17.25
0,259,200,162,272,478,93,134,379,0.46502685546875,0.665283203125,0.2171630859375,-0.5421142578125,-0.85107421875,0.248046875,-0.02880859375,-36.375,14.875,-30.8125
0,290,210,173,276,351,84,147,372,0.462158203125,0.66485595703125,0.2261962890625,-0.54150390625,-0.9931640625,0.25341796875,-0.06591796875,-21.0625,23.375,-32.6875
0,222,208,172,263,241,64,138,327,0.4547119140625,0.66748046875,0.2308349609375,-0.5426025390625,-1.16015625,0.318359375,-0.0654296875,20.5625,21.375,-32.125
0,210,210,174,259,137,64,138,300,0.44805908203125,0.67108154296875,0.2281494140625,-0.5447998046875,-1.2421875,0.55078125,-0.091796875,43.9375,-1.0,-17.25
0,215,195,160,251,110,65,132,291,0.44732666015625,0.67156982421875,0.224365234375,-0.54638671875,-1.13916015625,0.6123046875,-0.08642578125,15.875,-18.9375,-3.0
0,217,169,139,173,98,55,136,297,0.45068359375,0.66864013671875,0.22308349609375,-0.54766845703125,-1.0322265625,0.4404296875,-0.021484375,-15.3125,-23.4375,5.3125
0,153,138,106,141,90,53,126,267,0.4521484375,0.66619873046875,0.2218017578125,-0.54998779296875,-0.97119140625,0.34033203125,-0.005859375,-5.5,-23.0,2.6875
0,131,119,97,113,83,53,121,232,0.45074462890625,0.6651611328125,0.2197265625,-0.55322265625,-0.94873046875,0.28759765625,-0.0517578125,11.5,-23.9375,-1.25
0,110,97,65,88,79,48,112,214,0.44952392578125,0.664306640625,0.218994140625,-0.5555419921875,-0.87744140625,0.30615234375,-0.048828125,6.25,-16.5625,-6.6875
0,97,64,55,82,64,39,80,135,0.449462890625,0.66351318359375,0.2193603515625,-0.556396484375,-0.826171875,0.33349609375,-0.01416015625,-2.9375,-6.8125,-6.1875
0,68,75,62,86,80,39,63,109,0.44964599609375,0.66241455078125,0.22064208984375,-0.55706787109375,-0.794921875,0.3349609375,0.01416015625,-7.125,-3.6875,-10.0625
0,69,94,71,84,74,39,47,96,0.44970703125,0.66119384765625,0.22265625,-0.55767822265625,-0.7763671875,0.30712890625,0.02001953125,-9.125,-1.0625,-12.0
0,70,98,65,80,283,40,59,128,0.44842529296875,0.6602783203125,0.2249755859375,-0.558837890625,-0.86962890625,0.3251953125,0.0419921875,-3.25,1.1875,-17.5625
0,62,99,64,75,332,40,61,125,0.4478759765625,0.6591796875,0.2264404296875,-0.5599365234375,-0.93359375,0.37939453125,0.041015625,-3.625,-2.0625,-14.6875
0,63,98,65,62,344,41,61,124,0.44952392578125,0.6561279296875,0.2291259765625,-0.5611572265625,-0.9208984375,0.3525390625,0.04248046875,-20.875,-9.1875,-13.6875
0,63,83,55,44,341,39,61,134,0.451904296875,0.651611328125,0.2315673828125,-0.5634765625,-0.86865234375,0.30419921875,0.06201171875,-25.125,-18.4375,-13.75
0,52,54,44,54,342,40,58,135,0.45196533203125,0.648193359375,0.2332763671875,-0.566650390625,-0.91552734375,0.275390625,0.037109375,-10.25,-19.5,-16.6875
0,46,45,47,55,208,40,42,100,0.45147705078125,0.6444091796875,0.2344970703125,-0.57086181640625,-0.97607421875,0.2666015625,0.08154296875,-5.8125,-22.5625,-18.375
0,46,41,56,91,123,38,38,97,0.451171875,0.63983154296875,0.2349853515625,-0.5760498046875,-0.99365234375,0.3232421875,0.1044921875,-4.75,-30.75,-22.5
0,54,71,76,131,110,44,37,95,0.4517822265625,0.63409423828125,0.23492431640625,-0.5819091796875,-1.0048828125,0.31298828125,0.103515625,-8.8125,-40.4375,-20.25
0,57,87,84,146,169,48,35,58,0.45404052734375,0.62823486328125,0.23553466796875,-0.58624267578125,-1.01953125,0.30419921875,0.0673828125,-20.1875,-39.375,-13.125
0,54,86,82,141,179,46,35,60,0.456298828125,0.6217041015625,0.2357177734375,-0.59136962890625,-1.0126953125,0.2314453125,0.15234375,-17.6875,-41.0,-10.3125
0,79,89,80,146,177,44,43,115,0.45599365234375,0.6170654296875,0.232421875,-0.59765625,-0.93896484375,0.19677734375,0.1728515625,10.0625,-43.5,-6.375
0,96,103,76,129,171,48,143,132,0.45428466796875,0.6151123046875,0.226806640625,-0.6031494140625,-0.943359375,0.29541015625,0.158203125,27.75,-37.125,-3.5625
0,99,104,65,112,157,46,155,150,0.45465087890625,0.6126708984375,0.22161865234375,-0.60723876953125,-0.96240234375,0.353515625,0.19873046875,15.9375,-33.75,1.375
0,97,96,56,94,84,44,164,155,0.45458984375,0.610107421875,0.2183837890625,-0.61102294921875,-0.94970703125,0.29248046875,0.12890625,8.75,-32.75,-2.125
0,100,101,58,100,68,48,179,181,0.4532470703125,0.6077880859375,0.2188720703125,-0.61419677734375,-0.96435546875,0.19189453125,0.0478515625,-0.3125,-24.25,-11.375
0,94,102,65,141,77,55,220,212,0.4505615234375,0.60748291015625,0.21875,-0.61651611328125,-0.9384765625,0.15771484375,0.04443359375,10.875,-14.1875,-7.5
0,82,93,64,147,99,66,184,207,0.44659423828125,0.60870361328125,0.21728515625,-0.61871337890625,-0.93505859375,0.1318359375,0.0595703125,24.3125,-9.25,-3.75
0,90,89,60,133,100,71,244,402,0.44097900390625,0.60906982421875,0.21807861328125,-0.62213134765625,-0.98046875,0.07373046875,0.037109375,21.8125,-10.3125,-17.8125
0,114,85,61,144,113,77,295,447,0.4326171875,0.610595703125,0.2161865234375,-0.62713623046875,-0.98046875,0.10498046875,0.08056640625,46.375,-12.125,-23.25
0,114,79,61,172,166,113,302,450,0.423583984375,0.61260986328125,0.2132568359375,-0.63226318359375,-1.00390625,0.1708984375,0.09326171875,53.0,-11.9375,-26.4375
0,197,82,69,169,176,118,293,565,0.414306640625,0.61492919921875,0.2109375,-0.63690185546875,-0.982421875,0.1728515625,0.0146484375,50.75,-11.875,-29.0625
0,231,82,72,175,167,121,352,589,0.4046630859375,0.61737060546875,0.20819091796875,-0.64166259765625,-0.9921875,0.2236328125,0.048828125,53.6875,-9.8125,-32.875
0,225,64,70,183,169,121,340,492,0.3958740234375,0.619384765625,0.2052001953125,-0.64617919921875,-1.0361328125,0.2626953125,0.07373046875,50.5,-11.0625,-31.3125
0,215,65,71,191,170,120,294,459,0.38873291015625,0.6190185546875,0.20477294921875,-0.65093994140625,-1.04296875,0.21533203125,0.0849609375,30.5625,-15.8125,-35.0
0,240,112,79,178,120,98,291,562,0.3809814453125,0.619384765625,0.20269775390625,-0.65582275390625,-0.99609375,0.1943359375,0.1005859375,41.375,-15.4375,-31.0
0,182,112,72,156,103,94,278,441,0.37237548828125,0.62213134765625,0.19744873046875,-0.6597900390625,-0.98681640625,0.24609375,0.099609375,59.4375,-8.5625,-21.75
0,147,113,78,185,109,85,194,421,0.36590576171875,0.62420654296875,0.19207763671875,-0.66302490234375,-0.9599609375,0.30322265625,0.0966796875,49.8125,-11.25,-17.0
0,159,118,81,223,122,95,233,434,0.3609619140625,0.62457275390625,0.18914794921875,-0.6661376953125,-0.87939453125,0.23779296875,0.1025390625,31.9375,-12.4375,-18.375
0,157,116,79,219,113,90,245,427,0.3560791015625,0.625,0.1864013671875,-0.669189453125,-0.86962890625,0.23046875,0.12548828125,31.5,-10.25,-18.75
0,123,82,71,209,105,77,255,279,0.3514404296875,0.62664794921875,0.18402099609375,-0.6707763671875,-0.88818359375,0.236328125,0.09619140625,29.625,-1.875,-14.625
0,114,76,64,206,105,77,252,383,0.34716796875,0.62811279296875,0.1815185546875,-0.67230224609375,-0.9111328125,0.20166015625,0.13134765625,29.1875,-0.5625,-10.5
0,102,72,58,171,92,75,249,385,0.3431396484375,0.62933349609375,0.177734375,-0.67425537109375,-0.9541015625,0.2431640625,0.15576171875,32.9375,-4.75,-8.25
0,86,65,63,114,67,57,161,354,0.341064453125,0.62921142578125,0.17523193359375,-0.676025390625,-0.951171875,0.2548828125,0.14453125,18.0625,-9.75,-7.4375
0,82,65,61,90,61,59,144,373,0.3402099609375,0.62762451171875,0.17578125,-0.67779541015625,-0.93408203125,0.20703125,0.12841796875,-0.8125,-11.375,-12.0
0,74,52,68,87,59,59,90,360,0.3394775390625,0.62603759765625,0.1783447265625,-0.67901611328125,-0.91259765625,0.166015625,0.1376953125,-9.1875,-5.3125,-15.75
0,78,76,184,146,104,53,78,215,0.33856201171875,0.62408447265625,0.1824951171875,-0.68011474609375,-0.8798828125,0.1279296875,0.17626953125,-14.9375,-0.25,-20.6875
0,80,96,257,297,139,58,68,182,0.3372802734375,0.62298583984375,0.1884765625,-0.68011474609375,-0.86572265625,0.10546875,0.1826171875,-20.0,12.0625,-24.75
0,96,134,401,504,242,78,63,161,0.3355712890625,0.62335205078125,0.1942138671875,-0.67901611328125,-0.890625,0.13330078125,0.162109375,-16.125,20.0625,-24.3125
0,108,166,514,577,323,89,49,100,0.33319091796875,0.6241455078125,0.1998291015625,-0.6778564453125,-0.8701171875,0.10498046875,0.1396484375,-12.75,21.6875,-24.4375
0,108,172,548,652,350,97,47,83,0.33056640625,0.6253662109375,0.20391845703125,-0.6767578125,-0.89892578125,0.150390625,0.158203125,-5.375,22.0,-22.8125
0,112,176,563,772,394,142,42,63,0.32958984375,0.62542724609375,0.20660400390625,-0.6763916015625,-0.97265625,0.2734375,0.2138671875,-7.9375,13.4375,-22.9375
0,121,203,655,917,495,251,56,61,0.3328857421875,0.6226806640625,0.2120361328125,-0.67559814453125,-0.94921875,0.29833984375,0.21240234375,-39.75,4.0625,-20.375
0,118,189,616,848,464,272,53,53,0.33831787109375,0.6197509765625,0.2176513671875,-0.673828125,-0.8779296875,0.29052734375,0.0703125,-51.125,-4.625,-11.4375
0,114,172,555,834,438,286,62,55,0.345947265625,0.61492919921875,0.22479248046875,-0.6719970703125,-0.9326171875,0.21875,0.12255859375,-67.3125,-8.625,-5.5625
0,115,177,549,799,434,296,69,57,0.35394287109375,0.609619140625,0.232177734375,-0.670166015625,-0.97998046875,0.203125,0.12939453125,-70.5625,-11.0,-4.25
0,103,165,517,690,400,321,74,57,0.3614501953125,0.6036376953125,0.23944091796875,-0.66900634765625,-1.05712890625,0.1015625,0.17041015625,-67.75,-13.875,-0.625
0,92,136,400,492,315,327,73,65,0.36773681640625,0.5994873046875,0.24530029296875,-0.667236328125,-1.015625,0.0595703125,0.1455078125,-54.6875,-8.0,5.625
0,79,125,357,462,337,321,74,67,0.37158203125,0.59979248046875,0.247314453125,-0.6640625,-0.9921875,0.0859375,0.068359375,-25.0625,4.6875,17.25
0,70,113,319,422,315,309,66,63,0.3753662109375,0.6024169921875,0.24774169921875,-0.65936279296875,-1.056640625,0.09228515625,0.0673828125,-16.1875,14.875,29.6875
0,70,93,269,388,295,301,57,60,0.37939453125,0.60528564453125,0.24835205078125,-0.6541748046875,-1.07275390625,0.12109375,0.0625,-18.0625,17.9375,29.9375
0,69,88,248,402,279,255,53,87,0.3856201171875,0.6063232421875,0.2503662109375,-0.6488037109375,-1.09814453125,0.1259765625,0.1484375,-34.0,17.4375,31.8125
0,60,70,182,472,216,138,107,152,0.394287109375,0.6048583984375,0.25384521484375,-0.64361572265625,-1.09619140625,0.099609375,0.20703125,-52.9375,11.5,34.125
0,61,64,155,519,159,112,123,156,0.4029541015625,0.601318359375,0.25653076171875,-0.64044189453125,-1.1494140625,0.1123046875,0.2783203125,-50.4375,-0.9375,29.375
0,59,61,144,559,167,154,128,160,0.41162109375,0.59832763671875,0.259033203125,-0.63677978515625,-1.18603515625,0.08447265625,0.17919921875,-50.25,-5.625,35.1875
0,53,68,145,618,250,269,130,161,0.42120361328125,0.59326171875,0.2640380859375,-0.6331787109375,-1.09033203125,-0.0703125,0.20849609375,-65.25,-6.125,36.1875
0,161,99,153,651,283,350,135,153,0.429931640625,0.58843994140625,0.26849365234375,-0.62994384765625,-1.02490234375,-0.03076171875,0.2548828125,-58.9375,-3.1875,31.1875
0,209,117,134,618,311,358,92,80,0.43682861328125,0.58477783203125,0.27032470703125,-0.6278076171875,-1.0849609375,0.01171875,0.30615234375,-38.875,-3.875,30.625
0,222,118,154,751,321,354,70,71,0.44451904296875,0.5811767578125,0.26983642578125,-0.6258544921875,-1.0888671875,0.1337890625,0.29443359375,-33.9375,-13.1875,33.125
0,230,120,157,781,322,336,64,63,0.453857421875,0.57769775390625,0.27032470703125,-0.6221923828125,-0.97314453125,0.23779296875,0.197265625,-48.0,-12.9375,32.3125
0,252,123,159,783,268,252,62,63,0.46466064453125,0.57220458984375,0.27447509765625,-0.61749267578125,-0.94580078125,0.14453125,0.18798828125,-71.5625,-10.0,31.5625
0,229,121,155,788,231,119,56,53,0.4747314453125,0.56689453125,0.2784423828125,-0.6129150390625,-1.0,0.10595703125,0.275390625,-66.125,-4.5625,33.1875
0,193,95,169,859,202,86,56,55,0.4837646484375,0.5631103515625,0.27960205078125,-0.60882568359375,-1.01123046875,0.16796875,0.28515625,-48.5,-7.0,36.125
0,212,105,148,820,199,86,56,59,0.49285888671875,0.5599365234375,0.279541015625,-0.60443115234375,-0.96826171875,0.2197265625,0.228515625,-45.0625,-11.125,38.875
0,236,111,148,794,179,80,56,61,0.50286865234375,0.55694580078125,0.2796630859375,-0.598876953125,-0.91455078125,0.2255859375,0.1953125,-50.4375,-9.5625,44.375
0,250,115,150,824,191,80,57,69,0.51239013671875,0.5540771484375,0.27984619140625,-0.5933837890625,-0.88427734375,0.15869140625,0.2421875,-46.75,-5.25,47.4375
0,238,96,156,793,190,78,49,68,0.5206298828125,0.550537109375,0.280029296875,-0.58941650390625,-0.9013671875,0.16748046875,0.279296875,-41.5,-8.4375,37.4375
0,255,96,132,667,170,74,79,78,0.52734375,0.54730224609375,0.2803955078125,-0.5863037109375,-0.90771484375,0.16943359375,0.21826171875,-36.25,-11.9375,30.5
0,261,121,214,643,155,71,81,89,0.5335693359375,0.54241943359375,0.2816162109375,-0.5845947265625,-0.92431640625,0.1005859375,0.2783203125,-38.0,-15.4375,23.9375
0,238,120,234,618,157,71,91,87,0.53790283203125,0.5384521484375,0.2818603515625,-0.584228515625,-0.94921875,0.0966796875,0.2705078125,-24.0,-18.125,18.8125
0,256,119,247,543,188,75,122,84,0.54205322265625,0.533935546875,0.283203125,-0.58380126953125,-0.90771484375,0.14599609375,0.23876953125,-30.6875,-17.8125,10.0
0,263,127,279,646,234,78,134,82,0.54705810546875,0.5301513671875,0.2838134765625,-0.582275390625,-0.9443359375,0.26953125,0.28271484375,-31.9375,-14.3125,12.25
0,245,133,320,733,255,89,118,69,0.552490234375,0.5269775390625,0.284912109375,-0.5794677734375,-0.93115234375,0.27001953125,0.23876953125,-35.8125,-10.375,17.4375
0,211,121,298,704,414,104,117,57,0.55810546875,0.523193359375,0.28619384765625,-0.576904296875,-0.85888671875,0.205078125,0.265625,-36.6875,-9.9375,18.5
0,268,140,315,787,454,113,112,63,0.56072998046875,0.52392578125,0.28387451171875,-0.5748291015625,-0.86328125,0.26513671875,0.265625,-1.875,-3.625,22.25
0,226,142,327,811,452,114,79,61,0.56439208984375,0.52545166015625,0.2808837890625,-0.57135009765625,-0.875,0.427734375,0.21630859375,-6.4375,-3.8125,23.875
0,213,147,364,821,492,113,66,65,0.57000732421875,0.52435302734375,0.2799072265625,-0.5672607421875,-0.82373046875,0.3525390625,0.21435546875,-27.0625,-6.9375,26.375
0,221,153,355,806,570,115,65,71,0.5751953125,0.52178955078125,0.2794189453125,-0.5645751953125,-0.72998046875,0.18212890625,0.25927734375,-25.375,-8.8125,25.75
0,235,158,373,872,492,110,64,76,0.57684326171875,0.52178955078125,0.277587890625,-0.56378173828125,-0.72412109375,0.17333984375,0.263671875,1.5,-4.6875,17.0625
0,183,150,359,864,481,104,68,83,0.5760498046875,0.5242919921875,0.27392578125,-0.5640869140625,-0.76513671875,0.2138671875,0.234375,23.25,-5.0,13.75
0,171,148,351,900,506,112,66,85,0.5767822265625,0.52777099609375,0.26898193359375,-0.5625,-0.84814453125,0.3916015625,0.2080078125,19.0625,-5.8125,20.9375
0,162,141,298,915,469,109,58,83,0.57916259765625,0.5286865234375,0.2667236328125,-0.56024169921875,-0.81689453125,0.37646484375,0.1708984375,-4.75,-7.75,17.5
0,147,138,311,928,419,102,59,79,0.5841064453125,0.52655029296875,0.2664794921875,-0.55718994140625,-0.80078125,0.30712890625,0.2587890625,-26.625,-6.875,22.0
0,131,149,296,844,406,93,55,71,0.58941650390625,0.52410888671875,0.26531982421875,-0.55450439453125,-0.74755859375,0.3095703125,0.314453125,-24.1875,-8.25,23.125
0,100,146,306,813,400,93,51,63,0.595703125,0.52008056640625,0.2642822265625,-0.55206298828125,-0.79296875,0.25830078125,0.39990234375,-29.5625,-11.5,27.25
0,89,144,293,809,376,87,48,63,0.59930419921875,0.516845703125,0.26434326171875,-0.55120849609375,-0.73828125,0.072265625,0.36328125,-16.625,-7.0,21.4375
0,82,142,293,754,375,89,47,60,0.5980224609375,0.51806640625,0.26458740234375,-0.55126953125,-0.7666015625,0.04638671875,0.29541015625,13.0,7.3125,11.75
0,89,137,278,732,320,85,48,61,0.59466552734375,0.5224609375,0.26483154296875,-0.5506591796875,-0.88330078125,0.22509765625,0.2861328125,25.0,20.125,3.5625
0,127,141,333,844,392,95,56,68,0.59405517578125,0.5247802734375,0.26666259765625,-0.54827880859375,-0.93896484375,0.37060546875,0.357421875,0.8125,23.8125,2.9375
0,136,154,424,962,407,99,52,68,0.59552001953125,0.52545166015625,0.267822265625,-0.54547119140625,-0.986328125,0.37744140625,0.48046875,-7.0,21.375,11.0625
0,151,154,462,990,390,89,50,70,0.59613037109375,0.5281982421875,0.26611328125,-0.54290771484375,-0.95263671875,0.37646484375,0.4140625,10.8125,15.5625,19.1875
0,176,165,476,1013,381,88,57,81,0.599365234375,0.52880859375,0.2637939453125,-0.53985595703125,-0.908203125,0.43310546875,0.40478515625,-4.5625,3.9375,23.625
0,178,162,463,1023,404,98,62,85,0.60430908203125,0.5260009765625,0.2626953125,-0.53765869140625,-0.833984375,0.38427734375,0.369140625,-23.4375,-8.25,18.75
0,146,133,421,963,323,92,57,79,0.6097412109375,0.52197265625,0.262451171875,-0.53558349609375,-0.7470703125,0.3037109375,0.31005859375,-32.0,-12.625,18.375
0,138,117,325,856,351,97,58,75,0.61505126953125,0.518310546875,0.26263427734375,-0.532958984375,-0.60986328125,0.2255859375,0.23876953125,-32.3125,-10.125,20.875
0,134,134,298,780,401,104,60,68,0.6187744140625,0.51715087890625,0.2620849609375,-0.530029296875,-0.55810546875,0.2587890625,0.23095703125,-18.0,-1.0,20.0625
0,102,119,263,688,423,102,55,57,0.620361328125,0.51898193359375,0.26171875,-0.52655029296875,-0.71533203125,0.36572265625,0.21044921875,-5.4375,8.8125,16.8125
0,93,125,268,602,430,92,48,49,0.62127685546875,0.52105712890625,0.2630615234375,-0.52276611328125,-0.82568359375,0.369140625,0.2353515625,-6.9375,16.75,14.1875
0,90,129,282,532,443,131,51,47,0.62237548828125,0.522705078125,0.26422119140625,-0.5191650390625,-0.89501953125,0.318359375,0.28125,-6.125,15.625,19.3125
0,91,124,268,444,413,122,47,43,0.6234130859375,0.5242919921875,0.26470947265625,-0.51605224609375,-0.87890625,0.28857421875,0.27783203125,-2.375,12.1875,20.875
0,76,104,235,397,361,119,45,42,0.6248779296875,0.5252685546875,0.2655029296875,-0.512939453125,-0.865234375,0.32373046875,0.2509765625,-8.1875,9.5,18.0625
0,74,118,240,376,315,116,42,41,0.62744140625,0.5244140625,0.26678466796875,-0.50994873046875,-0.892578125,0.3916015625,0.29833984375,-19.4375,6.0625,13.5625
0,69,118,261,366,314,119,42,40,0.6314697265625,0.5211181640625,0.269775390625,-0.50677490234375,-0.9267578125,0.42822265625,0.291015625,-38.9375,2.125,7.6875
0,67,106,215,368,312,96,38,38,0.63616943359375,0.5164794921875,0.27386474609375,-0.50347900390625,-0.94580078125,0.4140625,0.30615234375,-48.8125,1.375,6.375
0,60,99,205,359,278,97,40,37,0.64080810546875,0.5120849609375,0.278076171875,-0.49981689453125,-0.9345703125,0.3857421875,0.3056640625,-48.375,3.875,8.6875
0,65,110,206,374,295,96,40,38,0.64434814453125,0.5091552734375,0.2816162109375,-0.4962158203125,-0.9267578125,0.37939453125,0.28466796875,-38.0,5.9375,9.75
0,63,97,192,375,316,96,40,39,0.647216796875,0.50714111328125,0.28472900390625,-0.49273681640625,-0.89794921875,0.38525390625,0.26318359375,-32.125,6.75,8.875
0,66,102,179,375,266,98,42,37,0.649658203125,0.50531005859375,0.2884521484375,-0.48919677734375,-0.88671875,0.353515625,0.2412109375,-31.8125,9.5,7.75
0,73,106,191,329,243,70,38,37,0.6510009765625,0.50445556640625,0.29229736328125,-0.4859619140625,-0.904296875,0.33837890625,0.23046875,-24.875,12.75,6.3125
0,69,107,203,332,248,68,36,37,0.651611328125,0.50433349609375,0.2960205078125,-0.48309326171875,-0.91845703125,0.33544921875,0.24609375,-18.5,15.75,4.5625
0,62,92,209,305,239,60,32,34,0.651611328125,0.50506591796875,0.2989501953125,-0.48046875,-0.93310546875,0.361328125,0.248046875,-11.3125,15.375,4.875
0,63,89,207,316,229,61,34,30,0.65179443359375,0.505859375,0.3013916015625,-0.4779052734375,-0.91552734375,0.375,0.24462890625,-10.4375,13.6875,4.875
0,67,78,185,300,226,49,33,32,0.6527099609375,0.505859375,0.30364990234375,-0.4752197265625,-0.8671875,0.38232421875,0.23779296875,-15.3125,10.9375,5.0
0,70,72,169,292,219,51,33,32,0.653564453125,0.50543212890625,0.3060302734375,-0.47296142578125,-0.8544921875,0.37353515625,0.2509765625,-15.8125,10.1875,2.5625
0,70,70,148,272,202,45,33,32,0.6544189453125,0.504638671875,0.308349609375,-0.47113037109375,-0.84765625,0.34716796875,0.2705078125,-15.4375,8.875,1.6875
0,69,69,124,256,180,44,32,33,0.65447998046875,0.504150390625,0.31005859375,-0.4703369140625,-0.8662109375,0.333984375,0.2822265625,-7.75,6.625,-1.125
0,66,72,147,226,176,42,31,32,0.654296875,0.50408935546875,0.31085205078125,-0.47021484375,-0.89501953125,0.3603515625,0.29150390625,-2.0,2.9375,-1.6875
0,68,66,145,237,171,42,31,32,0.654052734375,0.5040283203125,0.311279296875,-0.47027587890625,-0.876953125,0.3505859375,0.265625,-1.1875,-0.5,-1.375
0,75,94,184,227,170,41,32,34,0.6539306640625,0.50396728515625,0.311767578125,-0.47027587890625,-0.8740234375,0.33349609375,0.25830078125,-1.5,-0.375,-0.1875
0,75,92,185,213,161,39,31,32,0.6534423828125,0.50421142578125,0.3125,-0.47021484375,-0.880859375,0.33642578125,0.25439453125,-0.1875,1.75,-1.125
0,76,96,191,185,151,40,33,31,0.6529541015625,0.504150390625,0.31341552734375,-0.4703369140625,-0.89892578125,0.3408203125,0.25927734375,-1.625,1.4375,-2.4375
0,81,96,207,197,133,37,32,31,0.65252685546875,0.50421142578125,0.3138427734375,-0.47052001953125,-0.89208984375,0.35302734375,0.279296875,0.25,0.875,-2.5
0,73,97,197,167,128,35,31,29,0.6519775390625,0.50457763671875,0.3140869140625,-0.47076416015625,-0.88330078125,0.35009765625,0.2705078125,2.75,0.75,-1.75
0,57,73,178,194,145,34,28,26,0.65130615234375,0.5050048828125,0.3140869140625,-0.47125244140625,-0.892578125,0.3583984375,0.2880859375,4.0625,0.375,-2.625
0,63,78,194,220,142,34,29,30,0.65093994140625,0.5050048828125,0.314208984375,-0.47161865234375,-0.90576171875,0.38330078125,0.29052734375,0.9375,-0.25,-3.4375
0,69,74,195,244,150,36,29,29,0.6512451171875,0.50390625,0.31524658203125,-0.4716796875,-0.88037109375,0.349609375,0.265625,-8.4375,-1.6875,-4.125
0,62,71,177,259,158,38,29,30,0.65142822265625,0.5025634765625,0.3162841796875,-0.47216796875,-0.88427734375,0.32275390625,0.26806640625,-7.1875,-2.875,-4.75
0,66,68,184,276,160,44,28,29,0.65106201171875,0.501953125,0.317138671875,-0.4727783203125,-0.8642578125,0.31005859375,0.240234375,-3.125,-2.5,-4.75
0,78,86,245,295,164,47,33,31,0.65020751953125,0.50189208984375,0.31787109375,-0.47357177734375,-0.86669921875,0.3232421875,0.23486328125,0.875,-1.6875,-6.3125
0,74,89,239,270,182,50,32,29,0.6495361328125,0.50164794921875,0.31890869140625,-0.47406005859375,-0.859375,0.33251953125,0.24560546875,-1.75,0.875,-6.6875
0,70,98,237,255,196,53,33,29,0.64947509765625,0.5003662109375,0.32037353515625,-0.4744873046875,-0.86962890625,0.333984375,0.27099609375,-8.0625,-0.1875,-8.3125
0,71,105,243,241,181,62,35,29,0.6494140625,0.49896240234375,0.3214111328125,-0.47528076171875,-0.89501953125,0.3310546875,0.28369140625,-6.75,-3.0,-8.0
0,68,111,253,236,184,61,33,30,0.64874267578125,0.49835205078125,0.3218994140625,-0.4765625,-0.91162109375,0.29345703125,0.26904296875,1.25,-4.0625,-5.6875
0,51,103,189,193,163,57,27,26,0.6473388671875,0.4989013671875,0.321533203125,-0.47808837890625,-0.9091796875,0.2998046875,0.2666015625,9.8125,-4.0,-4.5625
0,64,96,182,194,151,54,28,26,0.645751953125,0.5,0.3206787109375,-0.479736328125,-0.9013671875,0.33642578125,0.2626953125,13.25,-4.1875,-5.875
0,58,85,192,186,133,50,26,26,0.6448974609375,0.5001220703125,0.3203125,-0.48095703125,-0.8779296875,0.35107421875,0.2548828125,4.9375,-5.125,-6.75
0,57,74,182,174,146,44,25,26,0.644775390625,0.4990234375,0.3203125,-0.48223876953125,-0.86669921875,0.32373046875,0.279296875,-1.6875,-7.0625,-7.25
0,65,66,180,139,133,40,26,25,0.64422607421875,0.49798583984375,0.32012939453125,-0.48419189453125,-0.85302734375,0.287109375,0.2890625,2.625,-7.6875,-8.4375
0,67,65,168,123,127,41,30,27,0.642822265625,0.49798583984375,0.31939697265625,-0.486572265625,-0.85986328125,0.28076171875,0.2861328125,11.0625,-6.9375,-8.4375
0,58,69,172,135,117,40,28,29,0.64105224609375,0.49853515625,0.3182373046875,-0.48907470703125,-0.8486328125,0.29638671875,0.29345703125,15.4375,-6.3125,-8.75
0,62,76,156,132,111,41,29,29,0.6392822265625,0.49908447265625,0.3170166015625,-0.4915771484375,-0.873046875,0.318359375,0.29638671875,15.25,-6.75,-9.875
0,61,72,139,119,83,33,27,29,0.6378173828125,0.49908447265625,0.3160400390625,-0.494140625,-0.8896484375,0.30615234375,0.3095703125,12.0625,-7.5,-9.8125
0,61,78,147,141,88,33,28,29,0.6361083984375,0.499267578125,0.3150634765625,-0.49676513671875,-0.88818359375,0.27783203125,0.30322265625,13.75,-7.25,-8.5625
0,54,69,157,136,95,30,25,28,0.6343994140625,0.499755859375,0.313720703125,-0.4993896484375,-0.8857421875,0.28369140625,0.302734375,16.0,-7.75,-7.8125
0,51,63,153,135,87,29,26,28,0.63275146484375,0.500244140625,0.3121337890625,-0.50189208984375,-0.8720703125,0.296875,0.318359375,16.3125,-7.3125,-7.75
0,50,62,175,162,107,25,25,27,0.63140869140625,0.50048828125,0.310791015625,-0.504150390625,-0.8662109375,0.30126953125,0.3046875,13.0,-7.375,-7.375
0,54,66,193,164,109,30,29,28,0.6304931640625,0.50006103515625,0.3096923828125,-0.50640869140625,-0.861328125,0.28564453125,0.328125,9.5625,-8.125,-7.1875
0,44,57,163,149,107,29,27,27,0.62945556640625,0.49981689453125,0.30841064453125,-0.50872802734375,-0.85546875,0.27392578125,0.33544921875,11.125,-7.6875,-6.3125
0,47,68,181,164,117,30,29,27,0.6282958984375,0.5,0.306884765625,-0.51092529296875,-0.87548828125,0.28759765625,0.33349609375,13.375,-7.3125,-5.8125
0,48,70,181,168,121,32,30,28,0.6273193359375,0.49993896484375,0.30548095703125,-0.512939453125,-0.86669921875,0.2890625,0.3359375,11.3125,-7.25,-5.125
0,59,69,166,142,112,36,31,29,0.62652587890625,0.49957275390625,0.30426025390625,-0.5150146484375,-0.85205078125,0.28125,0.33349609375,9.1875,-7.8125,-5.875
0,57,67,156,139,142,38,30,27,0.62579345703125,0.4993896484375,0.3028564453125,-0.5169677734375,-0.861328125,0.29150390625,0.34423828125,9.8125,-7.3125,-5.1875
0,56,67,169,160,149,38,30,27,0.6251220703125,0.4989013671875,0.30206298828125,-0.5186767578125,-0.859375,0.27978515625,0.3408203125,6.5625,-6.0,-5.6875
0,57,58,155,161,137,40,28,29,0.62445068359375,0.49835205078125,0.30126953125,-0.5205078125,-0.87841796875,0.26904296875,0.34375,7.0625,-6.6875,-5.125
0,57,56,161,189,145,41,27,26,0.62396240234375,0.49774169921875,0.30047607421875,-0.52203369140625,-0.8818359375,0.27685546875,0.35205078125,5.375,-6.25,-4.0625
0,50,53,164,198,154,38,28,28,0.623779296875,0.496826171875,0.3001708984375,-0.5234375,-0.85595703125,0.2568359375,0.33740234375,2.125,-5.9375,-4.0
0,56,52,156,202,167,35,28,31,0.62347412109375,0.49615478515625,0.2996826171875,-0.524658203125,-0.86181640625,0.27587890625,0.3486328125,3.0,-4.5625,-4.125
0,59,51,148,213,253,42,28,31,0.623291015625,0.495361328125,0.2998046875,-0.5255126953125,-0.86474609375,0.265625,0.357421875,0.25,-1.8125,-3.6875
0,59,87,154,223,266,41,28,30,0.62310791015625,0.49493408203125,0.29998779296875,-0.52606201171875,-0.88037109375,0.28173828125,0.33349609375,-0.3125,-1.375,-2.9375
0,66,93,172,200,262,38,29,32,0.623779296875,0.49359130859375,0.300537109375,-0.52618408203125,-0.89892578125,0.27001953125,0.34765625,-6.9375,-2.5625,-0.4375
0,61,92,168,196,255,40,27,31,0.62432861328125,0.4927978515625,0.30108642578125,-0.52593994140625,-0.90185546875,0.27001953125,0.3359375,-5.8125,-0.5625,1.625
0,55,94,168,193,228,38,26,27,0.6248779296875,0.49224853515625,0.30169677734375,-0.5255126953125,-0.89501953125,0.2724609375,0.3330078125,-5.5625,0.5,2.1875
0,59,99,162,152,113,33,28,32,0.62554931640625,0.49169921875,0.30224609375,-0.52484130859375,-0.880859375,0.2744140625,0.33349609375,-6.125,1.4375,3.0
0,57,67,137,121,94,31,27,30,0.6263427734375,0.4913330078125,0.30291748046875,-0.52392578125,-0.875,0.27978515625,0.32763671875,-7.0625,2.75,3.875
0,48,82,116,114,109,32,26,29,0.62701416015625,0.49114990234375,0.30377197265625,-0.5228271484375,-0.876953125,0.27783203125,0.31396484375,-6.875,3.5,4.0
0,65,86,127,124,110,30,28,30,0.6275634765625,0.49102783203125,0.3046875,-0.52166748046875,-0.87255859375,0.27734375,0.31005859375,-6.75,4.1875,4.0
0,63,84,121,121,126,31,27,29,0.6282958984375,0.4908447265625,0.30572509765625,-0.5203857421875,-0.8681640625,0.275390625,0.2890625,-8.4375,3.4375,4.3125
0,58,84,119,128,125,29,25,26,0.6290283203125,0.4906005859375,0.306884765625,-0.51904296875,-0.87744140625,0.2841796875,0.29541015625,-9.0,4.125,3.8125
0,59,84,134,123,114,27,26,27,0.63006591796875,0.490234375,0.3092041015625,-0.51678466796875,-0.88134765625,0.271484375,0.31201171875,-6.25,5.0,2.125
0,62,89,187,168,116,33,29,28,0.6302490234375,0.4903564453125,0.3101806640625,-0.51580810546875,-0.8994140625,0.28076171875,0.29541015625,-5.1875,4.4375,2.5625
0,56,100,187,163,113,35,28,28,0.63079833984375,0.4901123046875,0.3111572265625,-0.51483154296875,-0.9052734375,0.28076171875,0.3095703125,-6.875,3.3125,3.1875
0,60,102,203,181,114,36,29,29,0.63128662109375,0.49005126953125,0.31195068359375,-0.51373291015625,-0.88525390625,0.27099609375,0.2939453125,-6.0625,3.25,4.625
0,60,98,207,178,117,37,28,28,0.6318359375,0.49017333984375,0.3125,-0.51263427734375,-0.876953125,0.2861328125,0.3046875,-4.6875,3.75,4.4375
0,61,102,209,194,115,39,29,29,0.63250732421875,0.48992919921875,0.313232421875,-0.51165771484375,-0.8759765625,0.27392578125,0.3056640625,-6.4375,2.75,4.25
0,65,86,155,150,98,34,26,28,0.633056640625,0.48974609375,0.3138427734375,-0.51080322265625,-0.87939453125,0.2705078125,0.3046875,-5.375,2.25,4.0625
0,58,70,154,151,93,30,25,28,0.633544921875,0.4896240234375,0.31427001953125,-0.510009765625,-0.88134765625,0.27880859375,0.30322265625,-4.5,1.625,3.9375
0,59,73,158,194,93,27,24,27,0.63421630859375,0.4891357421875,0.31488037109375,-0.50927734375,-0.88037109375,0.2685546875,0.2900390625,-6.5625,0.0625,3.5625
0,58,77,164,200,91,28,25,29,0.6346435546875,0.48895263671875,0.3154296875,-0.508544921875,-0.87451171875,0.26611328125,0.2822265625,-4.9375,0.6875,3.4375
0,63,86,169,186,94,25,26,27,0.63507080078125,0.4888916015625,0.31585693359375,-0.50775146484375,-0.88037109375,0.2802734375,0.28955078125,-4.6875,1.3125,3.875
0,54,91,195,199,91,29,27,27,0.6356201171875,0.48876953125,0.31658935546875,-0.50677490234375,-0.89501953125,0.2890625,0.28564453125,-6.3125,1.5625,3.5625
0,51,91,186,194,88,29,28,28,0.6363525390625,0.48828125,0.3175048828125,-0.5057373046875,-0.888671875,0.27783203125,0.27685546875,-8.875,1.0,3.4375
0,45,89,168,130,67,31,30,30,0.636962890625,0.48797607421875,0.31817626953125,-0.50482177734375,-0.89208984375,0.2822265625,0.279296875,-6.625,0.5,3.625
0,45,87,169,144,73,29,29,29,0.6373291015625,0.48809814453125,0.318603515625,-0.50396728515625,-0.87158203125,0.27294921875,0.26416015625,-4.3125,0.75,4.5625
0,38,82,170,144,74,30,29,31,0.6376953125,0.4881591796875,0.31915283203125,-0.503173828125,-0.880859375,0.28564453125,0.2724609375,-4.375,0.8125,2.875
0,41,91,151,140,88,30,31,31,0.637939453125,0.4881591796875,0.31976318359375,-0.50238037109375,-0.90283203125,0.2900390625,0.275390625,-4.6875,1.3125,2.5625
0,59,99,162,148,93,31,30,33,0.6383056640625,0.4879150390625,0.320556640625,-0.501708984375,-0.90087890625,0.28955078125,0.27734375,-6.0,0.6875,1.875
0,59,97,158,146,92,29,29,31,0.6385498046875,0.48773193359375,0.3211669921875,-0.5010986328125,-0.8974609375,0.283203125,0.271484375,-4.8125,0.0625,1.875
0,61,97,166,164,84,31,31,31,0.638671875,0.4876708984375,0.3216552734375,-0.50079345703125,-0.89892578125,0.27001953125,0.271484375,-2.8125,-0.5625,1.8125
0,58,88,147,163,80,31,28,30,0.638427734375,0.488037109375,0.32171630859375,-0.50067138671875,-0.8935546875,0.279296875,0.27783203125,1.1875,-0.25,1.375
0,54,62,136,150,68,29,25,27,0.63818359375,0.4884033203125,0.3216552734375,-0.50067138671875,-0.89892578125,0.298828125,0.2841796875,1.3125,-0.6875,0.375
0,34,57,148,159,69,27,25,25,0.63812255859375,0.488037109375,0.322021484375,-0.5008544921875,-0.90283203125,0.27197265625,0.28271484375,-2.0,-2.1875,-0.75
0,34,59,158,170,67,27,25,26,0.637939453125,0.4879150390625,0.32208251953125,-0.50115966796875,-0.896484375,0.2822265625,0.28759765625,0.5,-2.5625,-1.125
0,29,59,176,169,68,26,24,23,0.63775634765625,0.48809814453125,0.322021484375,-0.50128173828125,-0.89306640625,0.2880859375,0.2822265625,0.8125,-1.6875,0.1875
0,48,68,192,173,84,25,26,26,0.637451171875,0.48822021484375,0.3221435546875,-0.50146484375,-0.8828125,0.27294921875,0.27197265625,0.875,-1.4375,-0.5625
0,49,74,200,173,107,25,25,27,0.63690185546875,0.48858642578125,0.3221435546875,-0.50177001953125,-0.8935546875,0.28857421875,0.28857421875,3.1875,-0.4375,-1.625
0,48,80,191,177,105,28,24,28,0.63641357421875,0.48895263671875,0.322265625,-0.50201416015625,-0.89990234375,0.27783203125,0.29150390625,2.8125,0.5625,-0.625
0,49,79,185,165,105,28,25,27,0.635986328125,0.48919677734375,0.322265625,-0.50225830078125,-0.89501953125,0.27880859375,0.29736328125,2.4375,-0.1875,-0.5625
0,50,81,152,130,106,28,26,29,0.63555908203125,0.4893798828125,0.32257080078125,-0.50250244140625,-0.8818359375,0.2646484375,0.2880859375,1.8125,0.4375,-1.0
0,34,76,132,140,93,27,24,28,0.63525390625,0.48974609375,0.322509765625,-0.5025634765625,-0.880859375,0.279296875,0.296875,2.5625,0.625,0.25
0,37,73,129,144,64,28,26,28,0.635009765625,0.4901123046875,0.322509765625,-0.50244140625,-0.8740234375,0.27197265625,0.28564453125,1.8125,1.1875,1.5
0,46,79,151,132,65,28,29,29,0.6346435546875,0.490478515625,0.3226318359375,-0.50250244140625,-0.88818359375,0.26904296875,0.29736328125,2.4375,1.25,0.5625
0,44,84,150,144,63,28,28,29,0.6343994140625,0.49078369140625,0.3226318359375,-0.5025634765625,-0.89208984375,0.28564453125,0.302734375,1.9375,0.9375,0.1875
0,47,79,156,146,58,38,28,30,0.63433837890625,0.49078369140625,0.32269287109375,-0.5025634765625,-0.8896484375,0.27392578125,0.28125,-0.5,0.9375,0.1875
0,48,85,181,153,61,50,29,30,0.63427734375,0.49078369140625,0.32275390625,-0.5025634765625,-0.89697265625,0.2744140625,0.283203125,-0.8125,-0.0625,0.25
0,53,90,176,164,59,51,31,32,0.63421630859375,0.4908447265625,0.32281494140625,-0.5025634765625,-0.89013671875,0.27490234375,0.27978515625,0.125,0.0,0.75
0,46,73,146,153,49,52,29,29,0.63397216796875,0.4910888671875,0.322998046875,-0.5025634765625,-0.89501953125,0.27197265625,0.26953125,1.0625,-0.5625,0.75
0,48,87,155,155,51,53,29,30,0.6336669921875,0.4915771484375,0.32269287109375,-0.502685546875,-0.88916015625,0.2783203125,0.27099609375,3.25,-1.5625,1.4375
0,55,88,150,158,50,46,29,28,0.63311767578125,0.4923095703125,0.322265625,-0.5028076171875,-0.8720703125,0.2841796875,0.26171875,4.9375,-1.0,0.6875
0,54,91,156,153,50,34,28,30,0.6326904296875,0.49298095703125,0.3218994140625,-0.5030517578125,-0.87353515625,0.28076171875,0.2744140625,5.0625,-0.5625,0.8125
0,49,85,152,138,43,32,25,28,0.6319580078125,0.49383544921875,0.32159423828125,-0.50323486328125,-0.87939453125,0.27880859375,0.28076171875,6.125,0.8125,0.375
0,53,101,160,166,46,30,26,30,0.631103515625,0.49481201171875,0.32122802734375,-0.503662109375,-0.900390625,0.2861328125,0.29541015625,7.875,1.5,-0.25
0,51,83,156,155,44,28,27,30,0.63018798828125,0.4957275390625,0.32098388671875,-0.5040283203125,-0.91552734375,0.2900390625,0.3037109375,7.5625,2.3125,-0.9375
0,51,88,182,177,51,29,25,30,0.62945556640625,0.4964599609375,0.3209228515625,-0.50421142578125,-0.90966796875,0.2900390625,0.2919921875,5.25,2.0,-0.4375
0,49,82,164,163,54,27,24,30,0.629150390625,0.496826171875,0.32086181640625,-0.50433349609375,-0.88671875,0.29052734375,0.3017578125,3.0625,1.6875,-0.0625
0,50,84,176,163,60,31,28,30,0.62872314453125,0.49725341796875,0.32098388671875,-0.50433349609375,-0.896484375,0.27978515625,0.30517578125,2.625,2.9375,0.3125
0,46,70,171,147,60,31,27,28,0.62841796875,0.49737548828125,0.32135009765625,-0.50439453125,-0.89501953125,0.26953125,0.30859375,1.5625,2.9375,-0.3125
0,46,81,196,157,64,33,29,29,0.62799072265625,0.4976806640625,0.32171630859375,-0.50439453125,-0.89892578125,0.287109375,0.296875,1.25,2.9375,-1.0
0,49,77,179,147,60,35,28,29,0.6278076171875,0.49774169921875,0.32232666015625,-0.504150390625,-0.89501953125,0.287109375,0.28466796875,-1.375,2.875,-0.75
0,51,76,192,153,55,34,29,27,0.6275634765625,0.49774169921875,0.32318115234375,-0.50390625,-0.88330078125,0.26220703125,0.27587890625,-2.0625,3.4375,-0.5
0,50,87,209,164,51,31,28,28,0.6270751953125,0.4979248046875,0.323974609375,-0.5037841796875,-0.8896484375,0.265625,0.27001953125,-0.0625,3.625,-1.4375
0,51,86,215,161,50,32,29,28,0.62640380859375,0.49859619140625,0.32452392578125,-0.50360107421875,-0.8994140625,0.291015625,0.2734375,1.875,4.4375,-1.3125
0,50,77,191,161,43,30,29,26,0.6259765625,0.49896240234375,0.3253173828125,-0.5032958984375,-0.904296875,0.291015625,0.27685546875,-0.4375,5.0,-1.375
0,39,82,214,164,51,27,30,25,0.62542724609375,0.499267578125,0.326416015625,-0.50299072265625,-0.89111328125,0.2705078125,0.24609375,-1.4375,4.625,-1.9375
0,36,88,192,158,50,28,29,26,0.6243896484375,0.49993896484375,0.3275146484375,-0.5028076171875,-0.919921875,0.26904296875,0.2568359375,1.875,6.0625,-2.3125
0,44,80,178,145,46,29,29,27,0.6234130859375,0.5010986328125,0.32830810546875,-0.50238037109375,-0.90771484375,0.28125,0.25634765625,3.5,7.5625,-0.6875
0,42,79,183,154,46,26,29,25,0.62274169921875,0.50189208984375,0.32904052734375,-0.501953125,-0.89892578125,0.2822265625,0.26708984375,1.9375,7.0625,-0.5625
0,44,77,186,171,54,27,29,29,0.6220703125,0.50250244140625,0.329833984375,-0.501708984375,-0.89599609375,0.26953125,0.2646484375,1.4375,6.1875,-1.25
0,41,69,150,148,42,28,27,29,0.6212158203125,0.50311279296875,0.33056640625,-0.5015869140625,-0.89306640625,0.26904296875,0.26123046875,2.375,5.75,-2.0
0,45,63,166,157,51,29,28,30,0.62030029296875,0.5037841796875,0.33154296875,-0.50146484375,-0.89892578125,0.26318359375,0.2470703125,2.0625,6.0,-2.125
0,49,54,153,165,53,28,29,31,0.61944580078125,0.5042724609375,0.3323974609375,-0.50140380859375,-0.91064453125,0.2685546875,0.2529296875,1.5625,5.5,-2.5
0,50,52,139,148,54,28,28,31,0.61871337890625,0.5048828125,0.3331298828125,-0.50128173828125,-0.9033203125,0.2744140625,0.24853515625,1.9375,5.0,-2.125
0,51,72,132,117,49,28,27,29,0.6177978515625,0.50531005859375,0.334228515625,-0.501220703125,-0.8994140625,0.25341796875,0.22412109375,0.875,4.8125,-2.6875
0,54,77,161,139,57,29,28,31,0.6168212890625,0.5059814453125,0.334716796875,-0.50146484375,-0.9033203125,0.26953125,0.23681640625,3.8125,3.5,-3.1875
0,50,74,143,124,48,28,26,29,0.61578369140625,0.50665283203125,0.33514404296875,-0.50177001953125,-0.89404296875,0.26220703125,0.2275390625,4.5,2.75,-2.9375
0,47,81,151,154,60,29,24,27,0.614501953125,0.50762939453125,0.33526611328125,-0.50225830078125,-0.90966796875,0.27490234375,0.22119140625,7.25,1.8125,-3.3125
0,50,88,151,150,56,29,23,28,0.61346435546875,0.50823974609375,0.3353271484375,-0.50286865234375,-0.90576171875,0.26416015625,0.23046875,5.9375,0.6875,-3.0
0,52,74,153,166,56,31,22,28,0.61236572265625,0.50897216796875,0.3350830078125,-0.50360107421875,-0.90380859375,0.26611328125,0.23046875,7.6875,-0.125,-3.0
0,48,74,131,158,47,29,22,29,0.611328125,0.509521484375,0.33465576171875,-0.50457763671875,-0.90673828125,0.2666015625,0.2392578125,8.0625,-1.375,-3.25
0,49,74,133,191,51,31,22,29,0.61029052734375,0.510009765625,0.334228515625,-0.50567626953125,-0.900390625,0.25830078125,0.23388671875,8.125,-2.4375,-3.5
0,52,70,121,162,34,29,24,29,0.60919189453125,0.510498046875,0.33355712890625,-0.50689697265625,-0.90771484375,0.26123046875,0.25146484375,9.3125,-2.8125,-3.4375
0,49,58,117,166,40,28,24,30,0.60821533203125,0.51092529296875,0.332763671875,-0.5081787109375,-0.908203125,0.26318359375,0.25244140625,9.4375,-3.1875,-3.3125
0,49,72,119,155,41,25,24,29,0.6072998046875,0.51123046875,0.33203125,-0.50946044921875,-0.91162109375,0.259765625,0.24951171875,8.5625,-3.8125,-3.1875
0,51,76,139,158,45,29,25,29,0.6064453125,0.511474609375,0.3311767578125,-0.5107421875,-0.90771484375,0.25830078125,0.2529296875,8.5,-4.3125,-2.875
0,50,75,133,118,42,27,27,31,0.60565185546875,0.51171875,0.330322265625,-0.51202392578125,-0.90185546875,0.25732421875,0.255859375,8.375,-4.4375,-2.8125
0,35,71,126,119,42,29,26,31,0.604736328125,0.511962890625,0.32952880859375,-0.5133056640625,-0.90380859375,0.25390625,0.248046875,8.6875,-4.3125,-2.9375
0,36,87,146,139,44,30,26,31,0.6038818359375,0.51226806640625,0.32879638671875,-0.5145263671875,-0.90576171875,0.25537109375,0.25,8.125,-4.0625,-2.75
0,42,75,144,136,46,29,30,30,0.6031494140625,0.5125732421875,0.32794189453125,-0.515625,-0.9091796875,0.26318359375,0.25390625,8.0625,-3.6875,-2.125
0,41,71,136,146,47,27,27,28,0.6024169921875,0.51300048828125,0.32708740234375,-0.51666259765625,-0.90283203125,0.2578125,0.263671875,8.4375,-2.9375,-1.375
0,40,70,144,148,46,28,26,26,0.60174560546875,0.51324462890625,0.32623291015625,-0.5177001953125,-0.8984375,0.25634765625,0.26220703125,7.9375,-3.1875,-1.75
0,44,70,148,157,52,26,24,26,0.6011962890625,0.51336669921875,0.32537841796875,-0.518798828125,-0.89990234375,0.2587890625,0.27001953125,7.125,-3.9375,-1.875
0,43,59,128,134,45,25,26,24,0.6007080078125,0.51336669921875,0.3245849609375,-0.519775390625,-0.90283203125,0.25927734375,0.26025390625,5.875,-4.5625,-1.625
0,35,74,151,140,45,28,21,25,0.60015869140625,0.513427734375,0.3238525390625,-0.52081298828125,-0.90185546875,0.24755859375,0.25830078125,6.25,-4.0,-1.25
0,36,74,135,124,41,26,24,26,0.599609375,0.51373291015625,0.3231201171875,-0.52166748046875,-0.89990234375,0.24951171875,0.2578125,6.9375,-3.3125,-0.5
0,37,75,130,145,45,28,24,26,0.59918212890625,0.513916015625,0.322265625,-0.5224609375,-0.89697265625,0.25830078125,0.265625,6.375,-3.1875,-0.4375
0,49,75,130,127,62,28,25,26,0.598876953125,0.51397705078125,0.32159423828125,-0.52313232421875,-0.896484375,0.25830078125,0.26318359375,4.6875,-3.4375,-0.375
0,52,71,137,151,65,30,25,27,0.59869384765625,0.51397705078125,0.32086181640625,-0.52386474609375,-0.90234375,0.25927734375,0.26708984375,4.375,-3.75,-0.3125
0,52,73,114,149,65,27,27,27,0.5985107421875,0.5137939453125,0.32025146484375,-0.52459716796875,-0.9013671875,0.24658203125,0.2626953125,3.6875,-4.125,0.25
0,55,78,149,153,69,28,26,25,0.59820556640625,0.513916015625,0.31951904296875,-0.5252685546875,-0.896484375,0.25146484375,0.26220703125,4.9375,-3.625,0.375
0,57,81,151,134,67,28,26,26,0.5980224609375,0.51385498046875,0.31884765625,-0.52587890625,-0.9013671875,0.2568359375,0.27197265625,4.0,-3.25,0.25
0,43,80,152,159,66,28,29,23,0.59808349609375,0.51373291015625,0.318359375,-0.52630615234375,-0.90185546875,0.2578125,0.27197265625,2.1875,-3.0,0.9375
0,46,75,155,147,66,26,27,23,0.59820556640625,0.51348876953125,0.31787109375,-0.52667236328125,-0.90283203125,0.25634765625,0.275390625,1.4375,-3.0625,1.25
0,56,80,171,161,66,31,28,23,0.598388671875,0.51324462890625,0.31744384765625,-0.5269775390625,-0.896484375,0.24853515625,0.271484375,1.0,-2.875,1.4375
0,53,71,139,148,61,31,27,25,0.59832763671875,0.51312255859375,0.3170166015625,-0.52740478515625,-0.900390625,0.24609375,0.2734375,2.5625,-2.4375,1.625
0,51,78,159,175,74,30,28,24,0.59832763671875,0.51318359375,0.31658935546875,-0.527587890625,-0.89111328125,0.25244140625,0.26708984375,2.125,-1.5625,1.875
0,54,83,177,168,65,30,26,25,0.5986328125,0.51300048828125,0.316162109375,-0.5277099609375,-0.8974609375,0.26123046875,0.27880859375,0.5625,-2.0625,2.0
0,54,84,177,161,64,31,30,28,0.5989990234375,0.51275634765625,0.3160400390625,-0.527587890625,-0.90966796875,0.26171875,0.2763671875,-1.5,-1.1875,2.25
0,42,66,156,147,62,26,28,26,0.59942626953125,0.51239013671875,0.3160400390625,-0.5274658203125,-0.908203125,0.251953125,0.283203125,-2.0,-0.9375,2.75
0,44,74,174,152,64,29,29,26,0.5997314453125,0.51220703125,0.31597900390625,-0.52728271484375,-0.90673828125,0.255859375,0.27490234375,-1.375,-0.5,2.8125
0,45,61,154,116,50,27,28,28,0.60009765625,0.5120849609375,0.3160400390625,-0.52703857421875,-0.8984375,0.25732421875,0.27392578125,-1.625,0.0625,2.6875
0,43,67,135,110,38,26,26,26,0.60040283203125,0.511962890625,0.316162109375,-0.52667236328125,-0.90966796875,0.2626953125,0.26953125,-2.25,0.5625,2.375
0,36,66,124,112,39,24,22,25,0.600830078125,0.51177978515625,0.3165283203125,-0.52618408203125,-0.90869140625,0.2607421875,0.25927734375,-3.9375,0.4375,2.75
0,43,71,141,120,44,26,23,28,0.60137939453125,0.51141357421875,0.31695556640625,-0.525634765625,-0.90625,0.2578125,0.26904296875,-4.8125,0.625,2.9375
0,50,70,125,119,43,24,23,27,0.60186767578125,0.51116943359375,0.31732177734375,-0.52508544921875,-0.90380859375,0.259765625,0.26806640625,-4.0625,1.125,3.0625
0,51,89,141,145,47,25,24,25,0.60235595703125,0.51104736328125,0.31768798828125,-0.5244140625,-0.90380859375,0.26220703125,0.25537109375,-4.125,1.0,3.0625
0,53,87,176,162,57,26,25,27,0.60272216796875,0.5108642578125,0.31829833984375,-0.52386474609375,-0.91845703125,0.2587890625,0.2568359375,-4.375,1.3125,2.625
0,54,90,179,171,59,27,25,27,0.6031494140625,0.5107421875,0.31884765625,-0.52313232421875,-0.90380859375,0.25830078125,0.2578125,-4.75,2.0625,3.0625
0,50,88,179,175,57,26,25,25,0.60357666015625,0.51068115234375,0.31939697265625,-0.5223388671875,-0.9033203125,0.265625,0.25146484375,-4.6875,1.9375,3.0
0,40,91,198,192,60,26,24,26,0.60400390625,0.510498046875,0.32012939453125,-0.5216064453125,-0.91015625,0.26318359375,0.25341796875,-5.4375,2.3125,2.5
0,38,73,187,204,78,31,25,26,0.60430908203125,0.51019287109375,0.3209228515625,-0.52093505859375,-0.91845703125,0.25390625,0.25390625,-5.4375,1.9375,2.0
0,44,63,152,184,76,31,25,25,0.6044921875,0.5101318359375,0.32171630859375,-0.5203857421875,-0.91748046875,0.25390625,0.24267578125,-4.3125,1.9375,1.9375
0,42,62,165,176,76,32,25,26,0.60479736328125,0.5101318359375,0.32232666015625,-0.51971435546875,-0.91455078125,0.2626953125,0.240234375,-4.125,1.5,2.1875
0,41,56,159,169,77,32,24,25,0.60504150390625,0.510009765625,0.32293701171875,-0.51910400390625,-0.9052734375,0.26220703125,0.23876953125,-4.4375,1.3125,2.0625
0,46,63,142,147,78,34,26,25,0.605224609375,0.5098876953125,0.3236083984375,-0.51861572265625,-0.904296875,0.25390625,0.232421875,-4.125,0.8125,1.375
0,49,64,145,107,62,29,26,25,0.605224609375,0.50994873046875,0.3240966796875,-0.51824951171875,-0.90576171875,0.2607421875,0.228515625,-2.4375,0.6875,0.5625
0,40,67,147,114,70,28,27,25,0.60516357421875,0.50994873046875,0.3245849609375,-0.51800537109375,-0.916015625,0.263671875,0.23388671875,-2.0625,0.5,0.5625
0,39,68,129,112,73,30,27,21,0.6051025390625,0.510009765625,0.32464599609375,-0.5179443359375,-0.91552734375,0.26513671875,0.2353515625,-0.6875,0.1875,0.25
0,38,67,119,103,72,29,26,23,0.60504150390625,0.51007080078125,0.32470703125,-0.5179443359375,-0.91943359375,0.263671875,0.23974609375,-0.625,-0.125,-0.25
0,52,71,128,112,81,27,25,27,0.60498046875,0.51007080078125,0.32476806640625,-0.5179443359375,-0.91650390625,0.2587890625,0.24462890625,-0.0625,-0.375,-0.625
0,51,76,137,103,82,27,24,28,0.60491943359375,0.51007080078125,0.3248291015625,-0.5179443359375,-0.91748046875,0.25732421875,0.244140625,0.75,0.0625,-0.6875
0,53,79,144,90,75,27,25,29,0.6048583984375,0.5101318359375,0.324951171875,-0.5179443359375,-0.91650390625,0.25390625,0.2373046875,0.75,-0.0625,-0.4375
0,54,76,147,100,80,24,25,31,0.6048583984375,0.5101318359375,0.324951171875,-0.5179443359375,-0.91357421875,0.265625,0.25048828125,0.5625,0.0,-0.1875
0,56,90,148,121,96,25,25,31,0.60479736328125,0.5101318359375,0.3250732421875,-0.5179443359375,-0.9111328125,0.25634765625,0.22802734375,-0.625,-0.1875,-0.0625
0,41,75,142,114,107,25,25,29,0.6043701171875,0.51043701171875,0.3251953125,-0.51800537109375,-0.9130859375,0.25537109375,0.2314453125,1.625,-0.375,0.0625
0,42,72,131,133,106,26,27,29,0.60382080078125,0.5108642578125,0.3250732421875,-0.518310546875,-0.912109375,0.25830078125,0.23095703125,3.6875,-1.0,-0.5625
0,52,74,123,156,120,30,26,27,0.60308837890625,0.51129150390625,0.32501220703125,-0.518798828125,-0.9169921875,0.255859375,0.228515625,4.4375,-1.5,-1.3125
0,51,90,130,163,122,28,25,27,0.60235595703125,0.51153564453125,0.32489013671875,-0.51947021484375,-0.921875,0.25146484375,0.23583984375,4.5625,-2.125,-2.0625
0,50,78,124,146,117,28,25,27,0.6015625,0.5120849609375,0.32452392578125,-0.5201416015625,-0.91357421875,0.26416015625,0.234375,5.9375,-2.0,-1.8125
0,47,81,118,147,104,31,25,26,0.60076904296875,0.512451171875,0.324462890625,-0.52069091796875,-0.90869140625,0.25390625,0.2177734375,4.5,-1.875,-2.25
0,46,80,126,144,132,33,22,26,0.59991455078125,0.51287841796875,0.3243408203125,-0.5213623046875,-0.91015625,0.25048828125,0.22998046875,5.3125,-1.5625,-2.4375
0,34,74,134,118,125,29,22,27,0.59893798828125,0.51348876953125,0.32415771484375,-0.52197265625,-0.9072265625,0.26123046875,0.22998046875,6.3125,-0.3125,-2.75
0,48,66,126,101,117,31,25,29,0.59796142578125,0.5140380859375,0.3240966796875,-0.52264404296875,-0.912109375,0.25732421875,0.24169921875,6.125,0.0,-3.1875
0,47,65,125,98,112,32,26,28,0.59686279296875,0.5145263671875,0.323974609375,-0.52349853515625,-0.9130859375,0.2490234375,0.24365234375,7.0,-0.25,-3.375
0,49,63,116,113,110,29,25,28,0.595703125,0.51519775390625,0.32354736328125,-0.52435302734375,-0.9072265625,0.2607421875,0.2412109375,8.3125,-0.75,-3.5625
0,50,61,103,96,70,27,26,29,0.59478759765625,0.5155029296875,0.32318115234375,-0.52532958984375,-0.91162109375,0.2578125,0.23828125,6.625,-2.5625,-3.75
0,50,65,91,99,64,30,26,29,0.59393310546875,0.515625,0.32275390625,-0.5264892578125,-0.90478515625,0.2529296875,0.2470703125,6.4375,-3.3125,-3.9375
0,38,68,128,154,106,34,25,27,0.593017578125,0.51593017578125,0.32208251953125,-0.527587890625,-0.90234375,0.2548828125,0.25390625,8.0,-2.8125,-3.25
0,37,73,135,155,111,35,25,28,0.592041015625,0.5162353515625,0.32171630859375,-0.528564453125,-0.8974609375,0.2373046875,0.2412109375,7.125,-2.25,-3.25
0,53,78,151,144,119,34,26,27,0.5911865234375,0.5166015625,0.321044921875,-0.5296630859375,-0.91455078125,0.24853515625,0.2587890625,8.0,-2.625,-2.5
0,54,81,168,178,122,36,27,27,0.5904541015625,0.51690673828125,0.3203125,-0.53057861328125,-0.91259765625,0.251953125,0.2587890625,7.375,-2.8125,-1.8125
0,54,92,180,195,123,33,26,26,0.58990478515625,0.51708984375,0.31976318359375,-0.5313720703125,-0.90234375,0.2421875,0.2509765625,5.875,-2.8125,-1.0
0,56,85,179,171,88,29,27,34,0.58929443359375,0.51727294921875,0.31903076171875,-0.53228759765625,-0.8955078125,0.24462890625,0.26171875,6.625,-3.125,-1.375
0,57,81,176,169,78,26,28,34,0.588623046875,0.51751708984375,0.31829833984375,-0.5333251953125,-0.89892578125,0.2421875,0.25732421875,7.375,-3.125,-1.6875
0,42,74,166,170,63,29,28,34,0.58795166015625,0.5177001953125,0.31744384765625,-0.5343017578125,-0.9091796875,0.2548828125,0.2646484375,7.125,-3.5,-1.8125
0,43,86,161,139,89,29,29,34,0.5875244140625,0.51776123046875,0.31671142578125,-0.53521728515625,-0.91162109375,0.25341796875,0.2626953125,5.75,-4.0625,-1.375
0,49,77,154,128,85,30,29,36,0.587158203125,0.5177001953125,0.3160400390625,-0.5360107421875,-0.90380859375,0.24365234375,0.2646484375,4.75,-3.75,-0.75
0,47,77,144,136,95,31,28,28,0.5867919921875,0.51763916015625,0.31536865234375,-0.536865234375,-0.90380859375,0.240234375,0.26904296875,5.25,-3.625,-1.0
0,47,76,142,136,97,32,28,28,0.58636474609375,0.5177001953125,0.314697265625,-0.53765869140625,-0.90673828125,0.2470703125,0.267578125,5.375,-3.0625,-0.75
0,52,75,144,138,101,30,27,36,0.58612060546875,0.51763916015625,0.3140869140625,-0.538330078125,-0.9091796875,0.2509765625,0.27197265625,3.875,-3.1875,-0.5625
0,49,70,129,132,81,28,25,35,0.5860595703125,0.51727294921875,0.313720703125,-0.53900146484375,-0.90576171875,0.23974609375,0.27392578125,2.0625,-3.4375,-0.5
0,42,66,112,132,85,27,25,32,0.58599853515625,0.51708984375,0.31329345703125,-0.53948974609375,-0.90380859375,0.244140625,0.26611328125,2.1875,-3.0,0.0625
0,40,61,96,104,86,29,27,34,0.58587646484375,0.51702880859375,0.3128662109375,-0.53985595703125,-0.9033203125,0.24462890625,0.2646484375,2.25,-2.4375,0.6875
0,47,64,123,109,85,31,27,35,0.5859375,0.51690673828125,0.31256103515625,-0.5401611328125,-0.90234375,0.2451171875,0.2763671875,1.5,-1.875,1.0
0,40,66,116,103,81,30,27,27,0.5859375,0.5167236328125,0.3123779296875,-0.5404052734375,-0.90625,0.23876953125,0.267578125,0.9375,-1.6875,1.0
0,41,71,123,121,100,29,27,27,0.58612060546875,0.51666259765625,0.31219482421875,-0.5404052734375,-0.90234375,0.24755859375,0.2626953125,0.125,-1.375,1.4375
0,39,68,130,103,105,31,26,28,0.58624267578125,0.51654052734375,0.31207275390625,-0.5404052734375,-0.904296875,0.2431640625,0.263671875,-0.25,-1.0625,1.8125
0,40,68,127,116,104,30,22,24,0.58642578125,0.516357421875,0.31207275390625,-0.5404052734375,-0.91259765625,0.240234375,0.2666015625,-0.625,-1.0,1.9375
0,50,72,113,124,105,28,23,33,0.58660888671875,0.516357421875,0.31201171875,-0.540283203125,-0.91455078125,0.24755859375,0.2578125,-0.5,-1.0,2.0625
0,52,70,120,133,103,32,25,33,0.58697509765625,0.51611328125,0.31201171875,-0.54010009765625,-0.91357421875,0.25244140625,0.2626953125,-2.3125,-1.125,2.25
0,52,65,126,120,79,32,27,33,0.58740234375,0.51580810546875,0.3121337890625,-0.53985595703125,-0.90185546875,0.24658203125,0.26171875,-2.75,-0.875,2.25
0,52,68,122,122,71,30,27,32,0.58782958984375,0.51556396484375,0.31219482421875,-0.53955078125,-0.900390625,0.24560546875,0.2607421875,-2.6875,-0.875,2.6875
0,54,71,128,125,81,30,31,32,0.58807373046875,0.51556396484375,0.3123779296875,-0.53924560546875,-0.90966796875,0.24609375,0.24658203125,-1.8125,-0.5,2.4375
0,38,65,116,113,86,31,30,25,0.58843994140625,0.51531982421875,0.31256103515625,-0.5389404296875,-0.91357421875,0.248046875,0.25830078125,-2.875,-0.625,2.25
0,37,68,117,106,88,28,30,34,0.58880615234375,0.51507568359375,0.31280517578125,-0.53863525390625,-0.9150390625,0.248046875,0.25927734375,-3.1875,-0.625,2.4375
0,44,76,119,117,102,31,30,34,0.58935546875,0.51470947265625,0.31317138671875,-0.53814697265625,-0.91455078125,0.248046875,0.24853515625,-4.625,-0.75,2.5625
0,55,73,123,116,103,32,30,36,0.5897216796875,0.51446533203125,0.31341552734375,-0.537841796875,-0.91748046875,0.248046875,0.25830078125,-3.625,-0.625,2.375
0,55,70,117,104,108,34,28,36,0.59014892578125,0.51434326171875,0.3135986328125,-0.537353515625,-0.9091796875,0.2529296875,0.25,-2.875,-0.375,2.8125
0,56,71,126,128,124,35,29,35,0.59051513671875,0.51422119140625,0.313720703125,-0.5369873046875,-0.90673828125,0.25537109375,0.26318359375,-2.625,0.125,2.5625
0,57,74,121,125,129,35,27,34,0.5909423828125,0.51397705078125,0.3140869140625,-0.53656005859375,-0.9130859375,0.25048828125,0.25927734375,-4.0,-0.0625,2.125
0,52,54,109,118,117,32,25,33,0.5911865234375,0.51373291015625,0.31451416015625,-0.53631591796875,-0.92529296875,0.24462890625,0.25732421875,-3.125,-0.125,1.6875
0,61,62,128,133,120,31,26,35,0.591552734375,0.513427734375,0.31475830078125,-0.5360107421875,-0.91357421875,0.24072265625,0.26171875,-2.9375,-0.25,2.5
0,61,81,162,153,115,28,27,35,0.591796875,0.51348876953125,0.31488037109375,-0.53564453125,-0.9150390625,0.25439453125,0.26025390625,-1.4375,0.25,2.4375
0,60,84,166,153,95,27,27,35,0.592041015625,0.51348876953125,0.31512451171875,-0.53521728515625,-0.91357421875,0.251953125,0.255859375,-2.4375,0.6875,2.3125
0,60,84,178,158,91,28,28,29,0.59222412109375,0.51336669921875,0.3155517578125,-0.53485107421875,-0.9140625,0.24658203125,0.2548828125,-2.8125,0.6875,1.8125
0,58,85,186,155,101,27,30,30,0.59234619140625,0.5133056640625,0.31610107421875,-0.53448486328125,-0.91796875,0.2421875,0.2509765625,-2.75,1.25,1.5
0,37,88,178,155,116,32,30,27,0.5924072265625,0.51336669921875,0.316650390625,-0.5340576171875,-0.92138671875,0.248046875,0.25537109375,-2.4375,2.0625,1.6875
0,39,74,151,148,115,32,28,28,0.5924072265625,0.51361083984375,0.31719970703125,-0.533447265625,-0.9130859375,0.25341796875,0.24853515625,-1.9375,3.3125,1.8125
0,39,71,144,144,120,31,27,32,0.5924072265625,0.5137939453125,0.31793212890625,-0.53277587890625,-0.91259765625,0.24853515625,0.2509765625,-2.875,3.9375,1.5625
0,39,68,136,138,137,35,27,32,0.59246826171875,0.5140380859375,0.31878662109375,-0.53204345703125,-0.91357421875,0.25439453125,0.24658203125,-3.3125,4.5625,1.25
0,45,90,154,192,133,37,26,31,0.59228515625,0.514404296875,0.3197021484375,-0.53131103515625,-0.91357421875,0.251953125,0.24169921875,-2.8125,5.25,0.8125
0,47,85,154,187,124,34,25,33,0.5921630859375,0.51483154296875,0.32080078125,-0.53045654296875,-0.9189453125,0.25244140625,0.23046875,-3.3125,5.875,0.9375
0,48,86,160,182,116,34,27,32,0.592041015625,0.51519775390625,0.32196044921875,-0.529541015625,-0.91650390625,0.2470703125,0.23388671875,-3.6875,6.1875,1.25
0,46,86,166,189,114,34,27,28,0.591796875,0.515625,0.32305908203125,-0.5286865234375,-0.91162109375,0.24169921875,0.22509765625,-2.9375,5.875,1.25
0,52,108,196,194,92,30,25,29,0.59161376953125,0.51605224609375,0.32391357421875,-0.5279541015625,-0.90966796875,0.2490234375,0.2275390625,-2.0,5.125,0.875
0,48,89,177,148,134,34,26,31,0.591552734375,0.5164794921875,0.32452392578125,-0.5272216796875,-0.9111328125,0.259765625,0.22119140625,-2.125,3.6875,1.625
0,44,85,172,153,139,33,25,29,0.5911865234375,0.51690673828125,0.3253173828125,-0.52667236328125,-0.9130859375,0.24755859375,0.212890625,-1.4375,4.0,0.25
0,61,87,182,169,139,34,25,30,0.59063720703125,0.5177001953125,0.3258056640625,-0.5262451171875,-0.91748046875,0.255859375,0.21240234375,1.3125,3.875,0.25
0,66,102,179,163,152,36,25,28,0.5902099609375,0.5181884765625,0.3262939453125,-0.52593994140625,-0.91845703125,0.25439453125,0.21240234375,0.5625,2.4375,-0.125
0,60,80,141,155,150,36,26,27,0.5897216796875,0.5185546875,0.3265380859375,-0.52593994140625,-0.92041015625,0.2451171875,0.2138671875,1.6875,0.875,-0.4375
0,62,85,161,148,113,33,25,25,0.58892822265625,0.5191650390625,0.3265380859375,-0.5262451171875,-0.91552734375,0.24560546875,0.20556640625,4.25,-0.125,-0.9375
0,62,86,156,136,100,30,25,25,0.58819580078125,0.519775390625,0.3262939453125,-0.526611328125,-0.91015625,0.25439453125,0.21044921875,5.375,-0.75,-1.125
0,43,103,142,112,127,30,23,25,0.58746337890625,0.52020263671875,0.3260498046875,-0.52716064453125,-0.9150390625,0.2490234375,0.2099609375,5.1875,-1.75,-1.875
0,36,92,150,101,112,29,24,27,0.58673095703125,0.52069091796875,0.3255615234375,-0.52777099609375,-0.90625,0.25439453125,0.21630859375,5.8125,-2.3125,-1.4375
0,40,93,174,130,114,28,25,34,0.5860595703125,0.52105712890625,0.3250732421875,-0.52850341796875,-0.91015625,0.244140625,0.21435546875,5.6875,-3.0,-1.25
0,37,91,156,131,125,26,25,34,0.58538818359375,0.52130126953125,0.32440185546875,-0.5294189453125,-0.9111328125,0.2353515625,0.22607421875,6.875,-3.8125,-1.125
0,53,104,161,141,127,30,28,36,0.584716796875,0.5216064453125,0.32342529296875,-0.53045654296875,-0.9091796875,0.25048828125,0.236328125,8.0,-4.5625,-1.375
0,51,81,159,151,99,28,29,36,0.58416748046875,0.52178955078125,0.322509765625,-0.53143310546875,-0.9052734375,0.248046875,0.22998046875,6.875,-5.125,-1.0
0,53,78,149,144,98,25,28,34,0.583740234375,0.521728515625,0.32159423828125,-0.53253173828125,-0.91015625,0.24072265625,0.2451171875,6.0,-5.5,-1.25
0,52,74,115,118,97,27,26,28,0.58306884765625,0.52178955078125,0.32073974609375,-0.53369140625,-0.92431640625,0.2373046875,0.23681640625,7.375,-5.875,-1.5625
0,53,82,112,130,79,27,27,29,0.5826416015625,0.5218505859375,0.31951904296875,-0.5347900390625,-0.92578125,0.255859375,0.25732421875,7.5625,-5.75,-0.75
0,35,68,129,123,92,25,24,27,0.58245849609375,0.52178955078125,0.31854248046875,-0.53564453125,-0.91259765625,0.2509765625,0.24609375,5.0625,-5.8125,0.1875
0,35,67,114,104,94,27,26,31,0.58221435546875,0.52166748046875,0.317626953125,-0.53656005859375,-0.89990234375,0.23876953125,0.25048828125,5.0625,-5.375,-0.1875
0,34,75,134,134,89,27,27,34,0.581787109375,0.52178955078125,0.31671142578125,-0.53753662109375,-0.8984375,0.2392578125,0.25,6.8125,-4.5625,-0.5
0,48,87,141,136,85,28,28,37,0.58135986328125,0.52178955078125,0.3157958984375,-0.5384521484375,-0.90576171875,0.2451171875,0.259765625,6.125,-4.4375,-0.6875
0,51,85,160,133,87,29,27,36,0.58099365234375,0.52178955078125,0.31494140625,-0.53936767578125,-0.91552734375,0.24658203125,0.255859375,5.6875,-4.625,-0.5
0,52,82,148,133,68,29,30,36,0.58074951171875,0.52166748046875,0.314208984375,-0.5401611328125,-0.92138671875,0.24462890625,0.26123046875,4.5625,-4.4375,-0.375
0,55,92,157,142,70,31,29,38,0.58050537109375,0.5216064453125,0.31353759765625,-0.5408935546875,-0.91552734375,0.2431640625,0.2568359375,4.1875,-3.9375,0.0
0,60,94,176,120,81,33,29,36,0.580322265625,0.521484375,0.3128662109375,-0.54156494140625,-0.908203125,0.24560546875,0.26708984375,3.75,-3.5625,0.0
0,47,84,170,133,86,32,28,32,0.58013916015625,0.5216064453125,0.31231689453125,-0.54205322265625,-0.8994140625,0.24072265625,0.2490234375,3.6875,-2.875,0.625
0,57,83,167,135,89,35,30,37,0.57989501953125,0.52154541015625,0.31195068359375,-0.54254150390625,-0.90869140625,0.23974609375,0.25537109375,3.125,-2.25,-0.125
0,59,88,169,135,93,34,27,41,0.57965087890625,0.52166748046875,0.3116455078125,-0.54290771484375,-0.91357421875,0.24462890625,0.2548828125,2.9375,-1.8125,0.375
0,56,83,183,140,109,34,25,37,0.57958984375,0.52154541015625,0.3114013671875,-0.54315185546875,-0.91455078125,0.24365234375,0.25927734375,1.25,-1.5625,0.6875
0,50,74,158,133,101,31,26,39,0.57958984375,0.5216064453125,0.31121826171875,-0.543212890625,-0.90673828125,0.24072265625,0.24951171875,1.25,-1.25,1.625
0,51,71,157,120,104,33,26,41,0.5794677734375,0.52154541015625,0.31109619140625,-0.54345703125,-0.9130859375,0.2353515625,0.2529296875,1.125,-1.3125,0.8125
0,38,68,158,122,126,32,23,38,0.5794677734375,0.521484375,0.3109130859375,-0.54364013671875,-0.9140625,0.24072265625,0.26171875,1.1875,-1.25,1.3125
0,37,72,166,119,129,33,23,35,0.5797119140625,0.5213623046875,0.310546875,-0.543701171875,-0.90673828125,0.24658203125,0.265625,0.375,-1.8125,2.125
0,41,65,140,102,117,30,24,34,0.580078125,0.52105712890625,0.31036376953125,-0.54376220703125,-0.90673828125,0.2451171875,0.259765625,-0.875,-2.1875,2.0
0,40,65,170,136,119,31,23,33,0.58038330078125,0.52081298828125,0.31011962890625,-0.54376220703125,-0.91162109375,0.24658203125,0.25830078125,-0.875,-2.4375,2.25
0,46,79,192,148,118,29,24,33,0.580810546875,0.52069091796875,0.3096923828125,-0.54364013671875,-0.90625,0.2490234375,0.25390625,-0.625,-2.5,3.5625
0,43,79,185,147,91,26,25,30,0.58135986328125,0.52056884765625,0.30926513671875,-0.54345703125,-0.89453125,0.24658203125,0.2568359375,-0.6875,-2.375,4.3125
0,42,73,186,147,85,26,24,34,0.58184814453125,0.52032470703125,0.308837890625,-0.54339599609375,-0.89111328125,0.24658203125,0.255859375,-0.875,-2.875,3.3125
0,40,80,205,177,97,29,25,36,0.5823974609375,0.5198974609375,0.3084716796875,-0.54339599609375,-0.9013671875,0.25048828125,0.2763671875,-1.3125,-2.75,2.8125
0,41,81,173,154,93,30,26,34,0.5828857421875,0.51947021484375,0.3084716796875,-0.5433349609375,-0.90869140625,0.2333984375,0.25927734375,-2.625,-2.25,3.0625
0,35,76,162,144,97,29,27,33,0.58331298828125,0.51910400390625,0.30865478515625,-0.54315185546875,-0.923828125,0.2470703125,0.25732421875,-3.3125,-1.625,2.1875
0,40,91,163,152,100,33,28,36,0.58404541015625,0.51873779296875,0.308837890625,-0.54254150390625,-0.9208984375,0.25830078125,0.26708984375,-4.8125,-0.375,3.875
0,47,93,154,153,94,33,30,30,0.5849609375,0.51824951171875,0.309326171875,-0.541748046875,-0.90380859375,0.2509765625,0.25439453125,-7.375,0.3125,4.125
0,44,88,149,136,77,34,29,26,0.5855712890625,0.51788330078125,0.30999755859375,-0.541015625,-0.912109375,0.2548828125,0.2578125,-6.125,1.5,2.375
0,45,88,152,151,78,36,30,26,0.5860595703125,0.5177001953125,0.31085205078125,-0.5401611328125,-0.91796875,0.25732421875,0.24755859375,-6.6875,2.6875,2.3125
0,49,113,145,151,77,38,27,34,0.5865478515625,0.517578125,0.31201171875,-0.53912353515625,-0.9296875,0.25537109375,0.24072265625,-7.5625,3.625,2.4375
0,44,97,145,149,80,35,28,33,0.58697509765625,0.51739501953125,0.31329345703125,-0.5380859375,-0.94189453125,0.2451171875,0.23779296875,-7.9375,3.6875,2.4375
0,36,100,141,152,84,33,26,34,0.5872802734375,0.51751708984375,0.31439208984375,-0.53692626953125,-0.9326171875,0.244140625,0.21728515625,-6.375,3.6875,3.5625
0,46,100,155,166,91,31,24,35,0.58782958984375,0.51776123046875,0.3150634765625,-0.53582763671875,-0.90673828125,0.25537109375,0.2353515625,-5.0625,3.75,4.5
0,49,114,163,163,94,31,23,36,0.58831787109375,0.51800537109375,0.3157958984375,-0.53460693359375,-0.88525390625,0.2529296875,0.22314453125,-5.375,3.9375,4.25
0,45,87,167,173,88,29,23,29,0.5887451171875,0.5181884765625,0.31658935546875,-0.533447265625,-0.89208984375,0.2490234375,0.22705078125,-5.625,4.125,3.9375
0,47,90,165,200,86,30,22,31,0.58880615234375,0.51861572265625,0.31744384765625,-0.53253173828125,-0.90625,0.244140625,0.21484375,-3.375,4.3125,3.0
0,51,105,172,201,101,36,24,32,0.58880615234375,0.51910400390625,0.31805419921875,-0.53167724609375,-0.9189453125,0.25830078125,0.220703125,-2.375,3.5625,2.8125
0,45,107,169,207,97,35,27,35,0.58892822265625,0.5194091796875,0.31866455078125,-0.53082275390625,-0.9306640625,0.2607421875,0.216796875,-3.1875,2.5625,2.8125
0,42,91,183,219,111,35,25,34,0.5889892578125,0.5196533203125,0.31927490234375,-0.53009033203125,-0.92724609375,0.24853515625,0.20751953125,-3.0625,1.75,2.9375
0,43,100,183,211,144,39,26,33,0.58917236328125,0.52001953125,0.3194580078125,-0.52947998046875,-0.92333984375,0.26025390625,0.21923828125,-1.25,1.0,3.5
0,48,110,187,182,142,38,27,31,0.58917236328125,0.5203857421875,0.31951904296875,-0.529052734375,-0.9111328125,0.2587890625,0.22216796875,-0.1875,0.75,2.5625
0,44,99,203,185,135,33,27,30,0.58892822265625,0.5208740234375,0.31951904296875,-0.52880859375,-0.91064453125,0.26220703125,0.21826171875,1.25,0.6875,1.5
0,40,96,192,154,152,38,26,27,0.58868408203125,0.52130126953125,0.31951904296875,-0.5286865234375,-0.91845703125,0.2646484375,0.21337890625,1.375,-0.0625,1.125
0,40,99,172,120,144,36,28,34,0.58837890625,0.5216064453125,0.31951904296875,-0.52874755859375,-0.91748046875,0.25390625,0.22412109375,2.0,-0.375,0.5
0,42,99,164,138,130,33,27,34,0.58795166015625,0.52191162109375,0.3193359375,-0.52899169921875,-0.91796875,0.25,0.22900390625,3.1875,-1.125,0.3125
0,38,89,155,123,137,33,24,35,0.58758544921875,0.5220947265625,0.31903076171875,-0.52947998046875,-0.91796875,0.255859375,0.2333984375,3.5625,-2.0,-0.4375
0,40,85,138,124,146,34,24,36,0.5870361328125,0.52203369140625,0.31915283203125,-0.530029296875,-0.939453125,0.2412109375,0.22802734375,2.3125,-2.1875,-1.75
0,44,92,130,133,135,30,24,44,0.58648681640625,0.52203369140625,0.31927490234375,-0.5306396484375,-0.93896484375,0.2490234375,0.23291015625,2.375,-1.9375,-2.25
0,46,94,132,134,134,32,22,39,0.58612060546875,0.52215576171875,0.319091796875,-0.53094482421875,-0.916015625,0.26123046875,0.23974609375,2.6875,-0.875,-1.0
0,45,81,131,119,122,29,24,40,0.58575439453125,0.5220947265625,0.31927490234375,-0.53131103515625,-0.91650390625,0.24609375,0.23876953125,1.3125,-0.625,-1.5
0,41,77,147,138,113,31,23,40,0.58502197265625,0.5224609375,0.31927490234375,-0.53179931640625,-0.91796875,0.24853515625,0.240234375,4.375,0.375,-1.8125
0,49,78,151,129,106,32,25,39,0.584228515625,0.52301025390625,0.3192138671875,-0.5321044921875,-0.91455078125,0.25732421875,0.22705078125,4.625,1.0,-1.75
0,48,72,154,127,107,30,26,38,0.58380126953125,0.5233154296875,0.3193359375,-0.5322265625,-0.90869140625,0.2578125,0.23583984375,2.1875,1.25,-1.0625
0,46,107,161,132,106,32,26,40,0.58319091796875,0.52362060546875,0.31964111328125,-0.5323486328125,-0.90283203125,0.23193359375,0.22412109375,2.375,1.6875,-0.75
0,45,109,169,129,112,35,25,40,0.58233642578125,0.5242919921875,0.3197021484375,-0.53271484375,-0.90673828125,0.24072265625,0.23779296875,5.75,2.6875,-1.3125
0,46,111,154,115,111,33,27,41,0.5814208984375,0.5250244140625,0.319580078125,-0.53302001953125,-0.9130859375,0.2607421875,0.2314453125,5.6875,2.0,-1.875
0,35,106,152,121,118,33,26,41,0.580810546875,0.525390625,0.31964111328125,-0.5333251953125,-0.92724609375,0.25390625,0.23486328125,3.625,1.0625,-1.625
0,35,118,156,121,106,32,25,35,0.580322265625,0.52557373046875,0.319580078125,-0.53369140625,-0.90283203125,0.2412109375,0.23583984375,3.125,0.1875,-0.8125
0,36,94,155,128,102,29,28,36,0.5797119140625,0.5257568359375,0.31964111328125,-0.53411865234375,-0.89404296875,0.22998046875,0.21630859375,3.375,-0.625,-1.375
0,43,93,152,134,88,26,28,36,0.5791015625,0.5260009765625,0.3192138671875,-0.5347900390625,-0.8984375,0.24658203125,0.234375,5.375,-1.375,-1.8125
0,46,92,150,147,89,26,28,33,0.57867431640625,0.52618408203125,0.31866455078125,-0.535400390625,-0.904296875,0.2607421875,0.232421875,4.625,-2.625,-1.375
0,46,103,142,156,65,27,29,33,0.57818603515625,0.52618408203125,0.31817626953125,-0.53619384765625,-0.916015625,0.24951171875,0.2353515625,4.375,-3.4375,-1.75
0,43,91,144,149,64,29,27,34,0.5777587890625,0.52593994140625,0.31781005859375,-0.537109375,-0.9267578125,0.2333984375,0.2333984375,3.625,-4.4375,-1.75
0,46,91,142,155,65,29,27,33,0.5770263671875,0.52606201171875,0.31744384765625,-0.53802490234375,-0.92041015625,0.23095703125,0.2119140625,5.3125,-4.4375,-2.0
0,41,88,138,150,88,29,28,33,0.57672119140625,0.52630615234375,0.31646728515625,-0.5386962890625,-0.9033203125,0.25,0.23681640625,6.375,-4.0625,0.6875
0,40,104,142,134,93,29,27,35,0.57647705078125,0.52642822265625,0.31549072265625,-0.53936767578125,-0.88818359375,0.25341796875,0.240234375,5.25,-4.25,0.25
0,42,94,149,139,91,26,27,33,0.5760498046875,0.52630615234375,0.3148193359375,-0.54034423828125,-0.90625,0.23486328125,0.2412109375,5.25,-4.5625,-1.3125
0,53,88,136,141,98,27,33,35,0.5755615234375,0.5263671875,0.31396484375,-0.54132080078125,-0.90869140625,0.2431640625,0.2392578125,6.3125,-4.875,-0.9375
0,51,77,130,134,106,25,32,30,0.5753173828125,0.52655029296875,0.3128662109375,-0.54205322265625,-0.90771484375,0.2626953125,0.244140625,5.75,-5.0,0.0625
0,54,91,131,133,101,27,33,38,0.57513427734375,0.5263671875,0.31207275390625,-0.54290771484375,-0.90185546875,0.24365234375,0.2451171875,4.1875,-5.0625,-0.3125
0,54,86,130,146,106,28,35,37,0.57470703125,0.5260009765625,0.3115234375,-0.54400634765625,-0.92578125,0.22509765625,0.2587890625,4.6875,-5.125,-1.4375
0,54,85,121,131,111,30,34,38,0.5743408203125,0.52593994140625,0.3106689453125,-0.54498291015625,-0.927734375,0.25,0.25244140625,5.4375,-5.375,-0.8125
0,69,86,127,124,112,28,32,40,0.57452392578125,0.525634765625,0.30975341796875,-0.5455322265625,-0.90478515625,0.25927734375,0.2509765625,2.3125,-5.625,1.0
0,69,84,137,147,105,31,33,45,0.57476806640625,0.52508544921875,0.30914306640625,-0.546142578125,-0.8935546875,0.240234375,0.2490234375,0.5625,-6.0,0.375
0,80,99,166,160,109,30,32,48,0.57470703125,0.52471923828125,0.30853271484375,-0.546875,-0.9013671875,0.2412109375,0.251953125,2.625,-5.1875,-0.3125
0,90,87,163,154,119,36,34,97,0.57452392578125,0.5247802734375,0.3077392578125,-0.5474853515625,-0.9013671875,0.26220703125,0.24462890625,4.0625,-4.375,-0.3125
0,101,86,153,144,122,34,35,102,0.57476806640625,0.52423095703125,0.3076171875,-0.5478515625,-0.92529296875,0.2529296875,0.24755859375,-1.5625,-4.5625,-0.5625
0,87,90,153,158,146,36,31,108,0.57525634765625,0.52325439453125,0.30767822265625,-0.5482177734375,-0.9228515625,0.22998046875,0.26220703125,-3.5625,-4.75,0.4375
0,98,118,158,126,144,35,38,132,0.5750732421875,0.52313232421875,0.3070068359375,-0.5489501953125,-0.91796875,0.2431640625,0.2666015625,3.9375,-4.375,0.0625
0,100,95,133,131,131,36,37,137,0.57501220703125,0.5230712890625,0.306396484375,-0.5494384765625,-0.90771484375,0.255859375,0.25048828125,2.6875,-3.9375,0.0625
0,114,94,131,143,135,37,37,128,0.57537841796875,0.5223388671875,0.30633544921875,-0.54974365234375,-0.91259765625,0.24267578125,0.265625,-2.4375,-4.0,0.1875
0,105,102,137,149,140,38,39,136,0.57574462890625,0.5216064453125,0.30609130859375,-0.5501708984375,-0.91015625,0.248046875,0.27099609375,-1.6875,-4.375,-0.0625
0,111,105,127,139,110,35,39,133,0.57635498046875,0.520751953125,0.306396484375,-0.55023193359375,-0.921875,0.2509765625,0.259765625,-5.5,-3.5625,-0.1875
0,103,87,125,177,128,38,33,108,0.5775146484375,0.51934814453125,0.3070068359375,-0.54998779296875,-0.91845703125,0.232421875,0.27099609375,-9.875,-3.9375,1.875
0,99,105,129,161,130,38,35,100,0.5784912109375,0.51800537109375,0.3074951171875,-0.5499267578125,-0.92041015625,0.208984375,0.279296875,-7.875,-3.5,3.0
0,72,129,145,145,106,33,33,75,0.5787353515625,0.517822265625,0.307373046875,-0.5499267578125,-0.9169921875,0.20458984375,0.24755859375,-0.4375,-3.0625,3.9375
0,70,125,153,151,92,32,29,53,0.57940673828125,0.5174560546875,0.3067626953125,-0.54986572265625,-0.912109375,0.25244140625,0.26220703125,-1.4375,-4.875,4.0625
0,63,123,157,147,102,35,29,44,0.580322265625,0.51702880859375,0.30633544921875,-0.54962158203125,-0.8994140625,0.24609375,0.2509765625,-3.625,-4.75,4.6875
0,59,119,142,93,88,32,29,43,0.581298828125,0.51654052734375,0.30596923828125,-0.5491943359375,-0.88427734375,0.23291015625,0.26416015625,-3.875,-3.4375,6.125
0,47,111,136,122,94,30,25,37,0.58197021484375,0.51666259765625,0.305419921875,-0.5487060546875,-0.880859375,0.23486328125,0.2548828125,-0.375,-2.0,6.75
0,45,87,137,131,119,30,25,35,0.58245849609375,0.51702880859375,0.30474853515625,-0.5482177734375,-0.92724609375,0.26171875,0.25927734375,0.8125,-1.9375,6.4375
0,65,92,156,137,124,31,25,35,0.5831298828125,0.51727294921875,0.303955078125,-0.54766845703125,-0.9619140625,0.2568359375,0.263671875,0.1875,-3.25,8.0
0,62,102,159,153,125,30,23,35,0.58319091796875,0.518310546875,0.30255126953125,-0.54736328125,-0.947265625,0.2705078125,0.25146484375,6.75,-2.9375,7.875
0,60,99,160,157,131,33,21,32,0.58319091796875,0.51947021484375,0.3013916015625,-0.54693603515625,-0.91455078125,0.248046875,0.22705078125,6.4375,-2.3125,8.5625
0,61,91,159,141,128,32,23,31,0.5838623046875,0.5211181640625,0.29754638671875,-0.5467529296875,-0.8349609375,0.24755859375,0.26904296875,9.3125,-4.1875,9.4375
0,63,100,152,152,108,32,22,30,0.58453369140625,0.521484375,0.29541015625,-0.546875,-0.82177734375,0.251953125,0.30224609375,7.3125,-4.5625,9.0
0,40,95,120,136,103,34,24,27,0.58514404296875,0.52191162109375,0.29339599609375,-0.54693603515625,-0.81298828125,0.25439453125,0.3154296875,7.25,-2.4375,8.5
0,39,97,140,131,98,32,24,27,0.58599853515625,0.5220947265625,0.29193115234375,-0.54656982421875,-0.83349609375,0.255859375,0.34521484375,4.0625,0.5625,9.3125
0,38,96,133,132,89,29,26,40,0.5870361328125,0.5223388671875,0.29052734375,-0.54595947265625,-0.86083984375,0.2822265625,0.365234375,2.9375,2.625,9.6875
0,49,112,137,154,83,30,27,42,0.58880615234375,0.521728515625,0.29010009765625,-0.54486083984375,-0.904296875,0.26806640625,0.36328125,-5.75,2.0,11.25
0,60,114,137,130,87,30,27,47,0.591796875,0.52056884765625,0.28961181640625,-0.54302978515625,-0.88427734375,0.27880859375,0.3779296875,-11.8125,1.125,15.875
0,60,113,138,133,84,27,25,49,0.59521484375,0.519287109375,0.2894287109375,-0.54058837890625,-0.87353515625,0.3037109375,0.35888671875,-16.75,1.875,16.625
0,61,103,127,149,86,29,27,53,0.59912109375,0.517333984375,0.2904052734375,-0.53765869140625,-0.8662109375,0.283203125,0.345703125,-24.5,3.375,16.5625
0,65,108,155,166,78,28,29,45,0.60284423828125,0.515625,0.2911376953125,-0.53466796875,-0.86376953125,0.29638671875,0.35009765625,-22.875,4.1875,17.0625
0,56,117,150,144,94,28,28,44,0.60662841796875,0.51397705078125,0.292236328125,-0.5313720703125,-0.87060546875,0.31103515625,0.31689453125,-25.25,3.6875,16.1875
0,42,123,159,168,95,27,28,39,0.61077880859375,0.5118408203125,0.2939453125,-0.52777099609375,-0.8662109375,0.2998046875,0.310546875,-30.6875,4.5,16.6875
0,42,125,185,166,98,27,29,34,0.61480712890625,0.50970458984375,0.296142578125,-0.52386474609375,-0.8623046875,0.28759765625,0.29931640625,-31.8125,6.125,16.75
0,47,121,194,151,97,24,29,32,0.61859130859375,0.50787353515625,0.2984619140625,-0.51995849609375,-0.8662109375,0.2861328125,0.28759765625,-30.9375,7.1875,16.625
0,41,121,175,137,106,27,27,41,0.6221923828125,0.5064697265625,0.30047607421875,-0.5157470703125,-0.8671875,0.3232421875,0.28564453125,-29.25,8.25,16.4375
0,46,114,179,138,112,32,27,42,0.6263427734375,0.50439453125,0.302978515625,-0.5113525390625,-0.8876953125,0.33251953125,0.30224609375,-34.9375,8.5,16.1875
0,47,95,181,124,109,31,30,45,0.63043212890625,0.50177001953125,0.30621337890625,-0.50689697265625,-0.9130859375,0.32080078125,0.287109375,-39.0,7.8125,14.5625
0,51,100,158,161,125,37,31,47,0.63433837890625,0.49908447265625,0.30938720703125,-0.502685546875,-0.9375,0.3134765625,0.26416015625,-38.125,5.125,14.1875
0,50,131,170,155,128,38,32,46,0.63800048828125,0.49700927734375,0.3121337890625,-0.4984130859375,-0.9296875,0.33154296875,0.22265625,-35.8125,3.3125,14.9375
0,54,128,183,156,130,39,32,36,0.64166259765625,0.4947509765625,0.3150634765625,-0.494140625,-0.9189453125,0.328125,0.20751953125,-37.125,2.875,13.9375
0,56,113,182,155,114,36,30,46,0.64447021484375,0.492919921875,0.318359375,-0.49017333984375,-0.91943359375,0.3046875,0.1865234375,-33.6875,4.5,11.5625
0,55,112,168,144,120,37,27,49,0.646484375,0.49169921875,0.3214111328125,-0.48675537109375,-0.91943359375,0.30810546875,0.1904296875,-27.4375,5.75,8.8125
0,51,106,184,116,115,34,25,49,0.64764404296875,0.49102783203125,0.3240966796875,-0.48406982421875,-0.921875,0.33447265625,0.18017578125,-21.4375,5.25,4.375
0,44,70,149,129,108,35,23,49,0.64849853515625,0.4903564453125,0.3267822265625,-0.4818115234375,-0.93798828125,0.3388671875,0.17138671875,-19.875,3.25,1.8125
0,41,62,133,116,98,34,21,48,0.6490478515625,0.48956298828125,0.32916259765625,-0.48028564453125,-0.943359375,0.30126953125,0.18017578125,-16.5625,1.0625,1.25
0,32,59,132,113,97,34,23,37,0.64874267578125,0.48956298828125,0.3309326171875,-0.47943115234375,-0.9423828125,0.29248046875,0.16357421875,-8.125,-0.125,-0.4375
0,29,64,155,143,86,32,23,29,0.6478271484375,0.489990234375,0.33233642578125,-0.479248046875,-0.935546875,0.291015625,0.15478515625,-2.5625,-1.125,-2.5
0,30,88,146,146,69,30,23,26,0.64642333984375,0.49090576171875,0.33331298828125,-0.47955322265625,-0.9248046875,0.29638671875,0.16162109375,2.625,-1.0625,-4.5
0,30,86,152,132,71,29,25,24,0.64447021484375,0.49224853515625,0.3338623046875,-0.4803466796875,-0.93408203125,0.31201171875,0.16552734375,7.625,-1.4375,-6.375
0,28,86,151,151,70,29,26,26,0.642333984375,0.49371337890625,0.33404541015625,-0.4815673828125,-0.93701171875,0.31591796875,0.17724609375,10.75,-2.4375,-7.75
0,30,104,149,165,87,29,25,28,0.6400146484375,0.4951171875,0.33380126953125,-0.48345947265625,-0.927734375,0.31103515625,0.18603515625,13.8125,-4.625,-9.625
0,33,113,133,148,85,30,26,31,0.6370849609375,0.49688720703125,0.33294677734375,-0.4862060546875,-0.931640625,0.32275390625,0.1904296875,19.9375,-7.1875,-12.5625
0,30,109,139,132,93,32,27,29,0.63397216796875,0.49853515625,0.3314208984375,-0.489501953125,-0.92138671875,0.33203125,0.19189453125,22.875,-10.4375,-14.875
0,31,107,146,162,95,30,25,29,0.6307373046875,0.49981689453125,0.32965087890625,-0.49359130859375,-0.91748046875,0.318359375,0.20947265625,24.875,-13.3125,-17.0625
0,31,109,147,146,91,29,24,27,0.627197265625,0.50067138671875,0.32763671875,-0.49853515625,-0.9189453125,0.2890625,0.2060546875,26.75,-17.5,-19.5
0,33,98,142,131,79,29,26,25,0.62347412109375,0.50164794921875,0.32470703125,-0.50408935546875,-0.92626953125,0.3046875,0.21875,31.25,-21.25,-20.5
0,30,111,145,127,78,29,27,23,0.61968994140625,0.50225830078125,0.32147216796875,-0.51019287109375,-0.92236328125,0.2919921875,0.22119140625,32.5,-24.6875,-21.9375
0,33,99,148,147,77,26,25,24,0.6156005859375,0.5028076171875,0.31787109375,-0.51678466796875,-0.91650390625,0.2841796875,0.22705078125,34.9375,-27.1875,-23.8125
0,32,100,134,111,79,26,27,23,0.611328125,0.50335693359375,0.3138427734375,-0.52374267578125,-0.91259765625,0.29052734375,0.2431640625,37.9375,-28.125,-24.8125
0,32,104,135,125,83,26,25,24,0.606689453125,0.504150390625,0.30963134765625,-0.53094482421875,-0.90673828125,0.2802734375,0.25,40.6875,-27.9375,-25.5
0,33,100,191,168,81,28,27,25,0.60174560546875,0.50482177734375,0.30517578125,-0.53839111328125,-0.9013671875,0.2802734375,0.2578125,42.3125,-28.9375,-27.25
0,34,79,205,163,85,28,25,26,0.59674072265625,0.50555419921875,0.30047607421875,-0.5458984375,-0.87158203125,0.2705078125,0.25048828125,43.5625,-29.9375,-26.75
0,30,72,191,147,85,29,26,27,0.5916748046875,0.50634765625,0.29547119140625,-0.5533447265625,-0.861328125,0.26171875,0.26513671875,45.125,-29.5,-25.8125
0,31,72,194,159,77,30,26,27,0.586181640625,0.5074462890625,0.2901611328125,-0.5609130859375,-0.8642578125,0.25341796875,0.2802734375,49.0625,-28.4375,-25.875
0,35,75,222,148,106,30,30,28,0.5802001953125,0.50872802734375,0.28460693359375,-0.5687255859375,-0.8603515625,0.2490234375,0.30029296875,52.375,-27.4375,-27.0625
0,32,88,190,98,110,27,28,26,0.57391357421875,0.51025390625,0.27874755859375,-0.57666015625,-0.86328125,0.25390625,0.32861328125,55.9375,-26.125,-27.4375
0,31,91,168,126,117,26,28,26,0.56768798828125,0.51171875,0.27252197265625,-0.58441162109375,-0.85888671875,0.2705078125,0.35009765625,56.25,-25.5,-27.0
0,43,93,167,132,114,27,27,24,0.56146240234375,0.51300048828125,0.2664794921875,-0.592041015625,-0.8671875,0.26513671875,0.3662109375,54.875,-25.0,-26.8125
0,57,99,188,123,132,28,26,26,0.55548095703125,0.513916015625,0.260498046875,-0.5994873046875,-0.8671875,0.2568359375,0.40625,53.6875,-23.5,-25.9375
0,56,104,160,124,112,28,25,23,0.549560546875,0.51483154296875,0.25457763671875,-0.60675048828125,-0.85791015625,0.25439453125,0.4169921875,52.8125,-22.375,-25.3125
0,57,99,146,136,107,30,26,23,0.54400634765625,0.51531982421875,0.24896240234375,-0.61358642578125,-0.86181640625,0.259765625,0.431640625,49.0625,-21.375,-24.5625
0,57,87,147,119,95,30,25,23,0.5390625,0.51507568359375,0.24395751953125,-0.62005615234375,-0.83984375,0.24072265625,0.45947265625,42.625,-20.0625,-23.4375
0,52,92,173,121,96,29,26,27,0.5345458984375,0.51483154296875,0.2392578125,-0.62603759765625,-0.8349609375,0.23779296875,0.46728515625,40.0,-17.9375,-21.5
0,40,110,163,157,68,29,27,25,0.53033447265625,0.5145263671875,0.235107421875,-0.63140869140625,-0.84033203125,0.22998046875,0.46923828125,36.0,-15.6875,-19.375
0,37,103,156,157,63,26,27,28,0.52667236328125,0.51397705078125,0.23150634765625,-0.63629150390625,-0.8427734375,0.22509765625,0.462890625,31.0625,-14.625,-17.8125
0,38,102,165,149,74,24,26,29,0.523681640625,0.51312255859375,0.228515625,-0.6405029296875,-0.83447265625,0.2236328125,0.45947265625,24.9375,-13.25,-15.625
0,39,106,164,149,75,23,27,30,0.52117919921875,0.51220703125,0.22607421875,-0.64410400390625,-0.82421875,0.20703125,0.45361328125,20.625,-11.25,-13.1875
0,40,114,151,144,72,24,27,28,0.51910400390625,0.51129150390625,0.223876953125,-0.64727783203125,-0.8212890625,0.203125,0.44482421875,17.75,-9.9375,-10.6875
0,37,101,140,102,70,22,26,29,0.51727294921875,0.51055908203125,0.22198486328125,-0.64996337890625,-0.8212890625,0.2001953125,0.43359375,15.5,-8.6875,-9.0
0,39,99,138,104,66,29,26,28,0.5157470703125,0.50982666015625,0.2203369140625,-0.65228271484375,-0.82373046875,0.201171875,0.431640625,13.1875,-7.625,-7.3125
