,channel 1,channel 2,channel 3,channel 4,channel 5,channel 6,channel 7,channel 8,channel 9,channel 10,channel 11,channel 12,channel 13,channel 14,channel 15,channel 16,channel 17,channel 18
0,63,38,34,103,249,167,52,35,0.2996826171875,0.35577392578125,-0.4232177734375,0.7774658203125,0.52294921875,-0.40576171875,0.17333984375,-5.625,0.3125,-1.625
0,72,37,33,86,212,161,45,35,0.3017578125,0.3543701171875,-0.421875,0.77801513671875,1.05029296875,-0.47412109375,0.71484375,-8.75,3.0625,-1.75
0,74,39,33,80,196,144,48,39,0.30242919921875,0.35479736328125,-0.42333984375,0.7767333984375,0.93896484375,-0.439453125,0.36669921875,-9.75,-0.375,0.9375
0,62,40,30,72,165,123,44,29,0.30340576171875,0.3544921875,-0.424072265625,0.77618408203125,0.79150390625,-0.42041015625,0.35498046875,-6.625,2.8125,-2.25
0,70,37,31,71,172,124,46,30,0.3045654296875,0.35394287109375,-0.42474365234375,0.77557373046875,0.8212890625,-0.4345703125,0.38134765625,-7.875,3.375,-2.625
0,70,33,31,58,164,72,38,29,0.3056640625,0.353271484375,-0.42559814453125,0.77496337890625,0.81640625,-0.4365234375,0.375,-8.6875,4.0625,-1.875
0,65,32,36,61,155,83,39,31,0.30718994140625,0.3521728515625,-0.42626953125,0.77447509765625,0.8251953125,-0.42333984375,0.408203125,-10.1875,5.6875,-1.75
0,61,32,37,62,179,86,39,32,0.306396484375,0.3511962890625,-0.42987060546875,0.77325439453125,0.34814453125,-0.4521484375,-0.0712890625,-4.9375,6.625,-3.625
0,64,37,38,56,177,83,45,35,0.3055419921875,0.349609375,-0.43408203125,0.77197265625,0.3525390625,-0.47900390625,-0.02587890625,-9.4375,6.0,-1.6875
0,53,40,38,67,179,84,44,35,0.3057861328125,0.3477783203125,-0.4354248046875,0.77191162109375,0.716796875,-0.53662109375,0.33935546875,-6.4375,6.125,-1.1875
0,50,44,36,69,190,93,44,36,0.31005859375,0.34613037109375,-0.43145751953125,0.773193359375,1.306640625,-0.39794921875,0.9970703125,-12.0,6.5,-0.75
0,71,47,28,70,203,80,48,37,0.314697265625,0.343994140625,-0.426513671875,0.7750244140625,1.298828125,-0.3212890625,1.12109375,-13.1875,5.9375,1.125
0,86,50,27,80,201,95,49,34,0.31610107421875,0.342041015625,-0.42608642578125,0.77557373046875,0.791015625,-0.38720703125,0.5732421875,-9.75,4.0625,1.625
0,85,44,27,84,209,92,43,32,0.313720703125,0.34100341796875,-0.4317626953125,0.7738037109375,0.27392578125,-0.53564453125,-0.19775390625,-6.0625,3.6875,-0.1875
0,85,41,24,79,216,92,43,32,0.310546875,0.3406982421875,-0.43853759765625,0.77142333984375,0.28564453125,-0.623046875,-0.3427734375,-2.75,3.1875,-1.5
0,84,36,25,80,205,102,46,30,0.31121826171875,0.33978271484375,-0.4388427734375,0.7713623046875,0.8671875,-0.53759765625,0.43994140625,-4.375,3.4375,-1.75
0,74,31,26,76,191,103,42,28,0.31585693359375,0.33843994140625,-0.433349609375,0.773193359375,1.36083984375,-0.36865234375,1.14599609375,-9.625,4.1875,-1.25
0,58,25,25,78,166,85,43,30,0.316162109375,0.33697509765625,-0.43402099609375,0.7733154296875,0.5556640625,-0.4638671875,0.279296875,-2.0,6.125,-4.0625
0,54,28,26,74,176,106,49,28,0.31671142578125,0.33599853515625,-0.4339599609375,0.7735595703125,0.73876953125,-0.484375,0.3955078125,-1.375,4.8125,-3.125
0,58,30,28,70,173,104,47,29,0.317138671875,0.33551025390625,-0.4339599609375,0.7735595703125,0.77783203125,-0.46923828125,0.400390625,-1.4375,2.5,-1.875
0,63,32,27,68,175,88,46,31,0.31781005859375,0.33489990234375,-0.4339599609375,0.77362060546875,0.79052734375,-0.46826171875,0.40771484375,-2.5,3.9375,-1.9375
0,55,32,30,64,183,94,42,32,0.31842041015625,0.33404541015625,-0.433837890625,0.7738037109375,0.77490234375,-0.47021484375,0.421875,-2.0625,4.25,-1.75
0,57,31,33,53,189,117,41,31,0.31964111328125,0.331787109375,-0.43280029296875,0.77484130859375,0.84912109375,-0.509765625,0.63427734375,-5.375,5.5,-0.875
0,57,31,31,54,175,101,39,35,0.32275390625,0.33251953125,-0.4287109375,0.7755126953125,1.21875,-0.31494140625,0.80517578125,-1.1875,3.4375,-0.875
0,53,29,37,58,195,101,43,37,0.3193359375,0.33245849609375,-0.43389892578125,0.7740478515625,0.3017578125,-0.62109375,-0.26904296875,5.5,2.75,-1.9375
0,63,26,40,50,186,111,46,38,0.32086181640625,0.3323974609375,-0.4315185546875,0.7747802734375,1.09375,-0.46923828125,0.67431640625,1.1875,3.375,-0.9375
0,62,28,39,65,181,111,49,40,0.32489013671875,0.33172607421875,-0.42474365234375,0.77716064453125,1.36767578125,-0.33447265625,1.21630859375,-1.875,2.0625,0.125
0,67,31,36,63,196,88,49,41,0.326904296875,0.33111572265625,-0.42156982421875,0.77825927734375,0.99560546875,-0.34326171875,0.78564453125,-2.0625,1.4375,0.3125
0,68,35,36,76,212,90,48,40,0.3250732421875,0.33062744140625,-0.42376708984375,0.77801513671875,0.3876953125,-0.47509765625,0.09521484375,3.0,-0.6875,-1.125
0,68,38,29,74,185,85,44,39,0.3209228515625,0.33135986328125,-0.42987060546875,0.776123046875,0.2119140625,-0.5927734375,-0.38818359375,6.3125,-1.1875,-0.9375
0,55,41,29,91,234,77,43,40,0.31951904296875,0.33209228515625,-0.4312744140625,0.77557373046875,0.71337890625,-0.53173828125,0.20361328125,5.25,-1.1875,-0.5
0,51,41,28,84,238,67,39,35,0.32025146484375,0.3321533203125,-0.42999267578125,0.7760009765625,1.302734375,-0.37646484375,1.00537109375,0.0625,-0.5625,-0.25
0,51,41,31,82,238,75,41,35,0.32049560546875,0.33160400390625,-0.42938232421875,0.7764892578125,0.970703125,-0.51220703125,0.62841796875,-2.9375,-1.6875,2.625
0,48,37,29,75,221,65,34,32,0.31988525390625,0.33154296875,-0.42877197265625,0.777099609375,0.69140625,-0.4296875,0.39794921875,5.3125,-1.125,1.0
0,48,35,30,79,233,75,40,37,0.31915283203125,0.33197021484375,-0.4288330078125,0.77716064453125,0.78076171875,-0.439453125,0.40234375,1.75,-3.3125,3.0625
0,45,31,30,66,192,68,37,32,0.31854248046875,0.3321533203125,-0.42889404296875,0.77734375,0.78125,-0.4482421875,0.41162109375,1.4375,-2.625,2.6875
0,47,34,28,63,168,67,35,34,0.31781005859375,0.332275390625,-0.42913818359375,0.77740478515625,0.78125,-0.4443359375,0.4150390625,0.25,-3.0625,3.9375
0,60,33,31,75,172,62,35,34,0.3172607421875,0.33306884765625,-0.4293212890625,0.77716064453125,0.9140625,-0.44921875,0.46240234375,-1.125,-5.125,5.0
0,62,32,33,68,179,61,36,35,0.31854248046875,0.3333740234375,-0.42510986328125,0.77886962890625,1.25732421875,-0.43212890625,0.97998046875,2.25,-5.25,4.4375
0,63,31,35,61,160,56,31,28,0.313232421875,0.3345947265625,-0.432373046875,0.77642822265625,0.21240234375,-0.603515625,-0.447265625,5.25,-6.125,4.0
0,67,30,35,70,182,59,34,27,0.31280517578125,0.33551025390625,-0.43145751953125,0.7767333984375,1.033203125,-0.4765625,0.59033203125,1.375,-6.375,5.375
0,64,23,36,72,204,60,37,25,0.31549072265625,0.33551025390625,-0.42559814453125,0.7789306640625,1.36962890625,-0.32763671875,1.20849609375,-3.0625,-6.75,6.5625
0,45,22,34,60,184,61,36,28,0.316162109375,0.33514404296875,-0.42242431640625,0.780517578125,1.0,-0.3515625,0.86767578125,-1.0625,-6.9375,6.625
0,44,27,39,63,191,66,39,31,0.31298828125,0.334716796875,-0.4251708984375,0.780517578125,0.39453125,-0.4990234375,0.12890625,3.3125,-6.5,5.5
0,42,28,36,73,219,67,39,35,0.30767822265625,0.3359375,-0.43212890625,0.77825927734375,0.255859375,-0.6162109375,-0.4013671875,5.625,-6.1875,4.6875
0,48,33,35,62,200,69,38,37,0.3052978515625,0.33746337890625,-0.43463134765625,0.77716064453125,0.798828125,-0.55908203125,0.15478515625,4.0625,-5.6875,5.125
0,62,38,35,59,184,72,44,40,0.3072509765625,0.3377685546875,-0.42962646484375,0.77899169921875,1.349609375,-0.39697265625,1.05810546875,-0.1875,-5.3125,6.25
0,67,39,33,60,183,68,44,40,0.30364990234375,0.3375244140625,-0.43328857421875,0.77850341796875,0.3349609375,-0.505859375,-0.0107421875,3.375,-5.375,5.9375
0,70,37,27,64,190,69,41,37,0.302734375,0.3372802734375,-0.43310546875,0.779052734375,0.6923828125,-0.46044921875,0.3916015625,3.25,-2.0625,2.9375
0,69,36,27,53,157,60,39,33,0.30169677734375,0.337890625,-0.433349609375,0.779052734375,0.81982421875,-0.4775390625,0.39453125,2.375,-5.0,4.125
0,66,33,26,59,177,51,38,31,0.30059814453125,0.33880615234375,-0.43341064453125,0.779052734375,0.79931640625,-0.47265625,0.37109375,4.25,-5.3125,3.0625
0,60,30,26,58,171,50,32,31,0.29949951171875,0.3397216796875,-0.43328857421875,0.7791748046875,0.79736328125,-0.46923828125,0.3798828125,4.5625,-5.25,2.9375
0,57,29,30,64,184,51,38,27,0.29840087890625,0.340576171875,-0.433349609375,0.7791748046875,0.7998046875,-0.46142578125,0.37353515625,3.5,-5.4375,3.875
0,53,28,31,57,158,53,41,27,0.2974853515625,0.3411865234375,-0.4334716796875,0.7791748046875,0.791015625,-0.46875,0.37939453125,2.75,-4.5625,3.3125
0,54,30,32,64,151,65,42,27,0.29644775390625,0.3416748046875,-0.43341064453125,0.7794189453125,0.79248046875,-0.474609375,0.3779296875,3.9375,-3.375,3.4375
0,49,30,31,58,159,63,42,29,0.29559326171875,0.3421630859375,-0.43316650390625,0.7796630859375,0.80419921875,-0.46533203125,0.375,4.8125,-2.375,3.625
0,40,31,31,61,171,63,38,28,0.294921875,0.342529296875,-0.4329833984375,0.77984619140625,0.81005859375,-0.4609375,0.3701171875,3.3125,-1.0625,3.375
0,42,29,29,55,159,65,30,28,0.29443359375,0.3426513671875,-0.43304443359375,0.7799072265625,0.8046875,-0.4794921875,0.36669921875,1.9375,0.0625,2.25
0,52,30,29,56,180,72,27,32,0.2938232421875,0.342529296875,-0.43304443359375,0.78021240234375,0.79833984375,-0.49658203125,0.3681640625,3.1875,1.0,2.5625
0,53,31,29,48,189,64,25,33,0.29302978515625,0.34246826171875,-0.4327392578125,0.78070068359375,0.7958984375,-0.4814453125,0.37109375,4.875,1.1875,3.625
0,55,31,30,47,166,70,37,32,0.29254150390625,0.3424072265625,-0.43218994140625,0.78125,0.79296875,-0.4658203125,0.37060546875,4.9375,2.3125,3.1875
0,54,27,30,43,161,66,37,32,0.29241943359375,0.34210205078125,-0.43157958984375,0.78173828125,0.79638671875,-0.46533203125,0.38330078125,3.6875,3.875,1.625
0,48,27,29,40,176,68,38,31,0.29266357421875,0.34173583984375,-0.430908203125,0.7822265625,0.79296875,-0.46728515625,0.380859375,3.4375,5.1875,-0.1875
0,39,28,28,52,178,54,38,27,0.29302978515625,0.3414306640625,-0.42999267578125,0.78265380859375,0.79345703125,-0.46337890625,0.380859375,4.0625,5.4375,-1.0
0,42,27,27,59,201,61,39,26,0.2935791015625,0.34124755859375,-0.42919921875,0.78302001953125,0.80078125,-0.4521484375,0.3759765625,3.3125,6.125,-1.625
0,41,25,28,59,212,67,31,23,0.29437255859375,0.34088134765625,-0.42864990234375,0.78314208984375,0.7978515625,-0.45361328125,0.3779296875,0.6875,6.1875,-2.0625
0,40,25,26,65,227,68,30,22,0.29522705078125,0.34039306640625,-0.42840576171875,0.783203125,0.79296875,-0.45458984375,0.37646484375,-0.9375,6.4375,-2.0
0,38,26,28,73,214,65,29,22,0.29632568359375,0.33984375,-0.42803955078125,0.783203125,0.791015625,-0.4404296875,0.38037109375,-1.5625,7.0625,-2.4375
0,38,27,29,69,197,70,28,22,0.2978515625,0.33905029296875,-0.4278564453125,0.7830810546875,0.80712890625,-0.4462890625,0.39111328125,-3.875,8.75,-3.5
0,40,27,29,67,232,69,28,24,0.2994384765625,0.337890625,-0.4281005859375,0.7828369140625,0.80029296875,-0.4609375,0.38037109375,-6.25,9.8125,-3.625
0,68,29,28,73,237,56,39,33,0.30108642578125,0.33660888671875,-0.42822265625,0.78271484375,0.791015625,-0.4736328125,0.38720703125,-5.625,10.5625,-4.0625
0,70,32,28,68,218,57,44,35,0.30291748046875,0.33538818359375,-0.4281005859375,0.7825927734375,0.794921875,-0.44873046875,0.39208984375,-5.4375,11.0625,-4.5625
0,73,33,25,60,225,57,45,35,0.305419921875,0.3341064453125,-0.427978515625,0.7822265625,0.79443359375,-0.43408203125,0.39453125,-7.5625,12.375,-6.8125
0,74,34,26,61,264,59,47,37,0.3087158203125,0.33270263671875,-0.42803955078125,0.781494140625,0.8095703125,-0.44091796875,0.40185546875,-11.1875,14.3125,-10.25
0,75,35,25,60,211,52,48,37,0.31231689453125,0.330810546875,-0.4283447265625,0.78070068359375,0.79150390625,-0.47998046875,0.4033203125,-12.6875,15.8125,-13.1875
0,58,35,23,52,203,53,37,32,0.31854248046875,0.32781982421875,-0.42864990234375,0.779296875,0.80810546875,-0.4814453125,0.39013671875,-9.1875,14.1875,-11.625
0,61,33,25,55,204,55,39,31,0.321533203125,0.32666015625,-0.4290771484375,0.7783203125,0.81591796875,-0.47314453125,0.38330078125,-10.375,12.8125,-11.5
0,60,31,27,56,204,62,40,29,0.32476806640625,0.32562255859375,-0.4296875,0.77703857421875,0.83447265625,-0.48876953125,0.3896484375,-12.0,11.875,-13.0
0,57,30,26,53,190,55,38,27,0.32806396484375,0.3248291015625,-0.43048095703125,0.77557373046875,0.83984375,-0.498046875,0.38818359375,-12.75,10.5625,-14.75
0,56,30,28,49,189,56,38,25,0.33148193359375,0.32415771484375,-0.4312744140625,0.77392578125,0.80517578125,-0.49072265625,0.38916015625,-12.9375,9.0625,-16.9375
0,61,29,29,56,196,57,44,22,0.33514404296875,0.32379150390625,-0.4315185546875,0.77239990234375,0.759765625,-0.466796875,0.39013671875,-11.3125,8.0625,-19.625
0,59,32,30,54,203,54,38,24,0.33935546875,0.3236083984375,-0.43072509765625,0.77105712890625,0.7587890625,-0.447265625,0.41650390625,-7.8125,9.25,-23.375
0,57,40,30,56,191,45,38,26,0.3441162109375,0.32342529296875,-0.42926025390625,0.76983642578125,0.779296875,-0.423828125,0.42138671875,-6.125,12.625,-25.5
0,61,43,32,62,162,63,39,28,0.34930419921875,0.3231201171875,-0.42779541015625,0.7684326171875,0.80078125,-0.39599609375,0.4208984375,-8.125,14.875,-25.3125
0,67,43,31,65,174,65,44,29,0.354736328125,0.32244873046875,-0.42694091796875,0.7667236328125,0.8095703125,-0.38525390625,0.40673828125,-12.4375,16.3125,-24.625
0,65,43,32,67,153,63,42,30,0.36016845703125,0.321533203125,-0.4263916015625,0.76483154296875,0.80126953125,-0.3837890625,0.404296875,-14.5,16.25,-24.125
0,62,41,31,76,212,74,42,29,0.36529541015625,0.320556640625,-0.42584228515625,0.76318359375,0.794921875,-0.396484375,0.41748046875,-13.375,15.6875,-23.875
0,63,34,30,76,219,89,45,28,0.36981201171875,0.31964111328125,-0.42523193359375,0.76171875,0.79248046875,-0.38232421875,0.40234375,-11.0,14.9375,-20.5
0,64,26,31,77,229,123,45,32,0.37408447265625,0.31884765625,-0.42437744140625,0.76043701171875,0.81201171875,-0.36767578125,0.41064453125,-9.5625,15.25,-18.375
0,63,25,31,80,235,134,52,31,0.37860107421875,0.3173828125,-0.42401123046875,0.759033203125,0.82470703125,-0.3642578125,0.4072265625,-13.625,17.6875,-16.75
0,64,24,33,91,244,135,49,32,0.38311767578125,0.3150634765625,-0.42431640625,0.75750732421875,0.8173828125,-0.3837890625,0.4091796875,-17.8125,19.75,-15.5
0,65,23,36,94,206,134,49,32,0.3875732421875,0.31195068359375,-0.42486572265625,0.7562255859375,0.806640625,-0.40283203125,0.42333984375,-19.8125,22.4375,-13.4375
0,64,26,37,98,226,126,55,32,0.3919677734375,0.30804443359375,-0.425537109375,0.75518798828125,0.78515625,-0.40185546875,0.4443359375,-21.75,23.9375,-11.3125
0,84,27,37,97,211,109,56,29,0.396240234375,0.30352783203125,-0.42633056640625,0.75433349609375,0.76611328125,-0.4296875,0.46142578125,-22.75,25.0,-10.375
0,80,32,35,93,197,95,47,31,0.400146484375,0.29876708984375,-0.42706298828125,0.7537841796875,0.74365234375,-0.42919921875,0.47607421875,-22.1875,24.875,-8.0
0,78,37,34,86,219,101,51,29,0.40399169921875,0.29412841796875,-0.427490234375,0.75335693359375,0.72998046875,-0.41943359375,0.48779296875,-20.3125,24.375,-7.75
0,80,36,32,79,211,117,51,29,0.40777587890625,0.28924560546875,-0.427978515625,0.7529296875,0.7236328125,-0.439453125,0.50537109375,-21.0,24.3125,-8.0
0,88,35,31,74,193,116,44,28,0.41119384765625,0.284423828125,-0.4283447265625,0.75262451171875,0.71142578125,-0.45556640625,0.513671875,-19.0625,23.125,-7.3125
0,74,36,33,82,228,91,42,33,0.4141845703125,0.2799072265625,-0.42852783203125,0.7525634765625,0.69873046875,-0.45556640625,0.51806640625,-16.25,21.125,-6.375
0,69,31,33,85,224,94,44,31,0.4171142578125,0.27587890625,-0.4285888671875,0.75244140625,0.68896484375,-0.4453125,0.5322265625,-15.25,18.6875,-6.9375
0,72,30,35,77,191,97,43,33,0.4200439453125,0.27203369140625,-0.42864990234375,0.752197265625,0.68896484375,-0.45166015625,0.54443359375,-15.3125,17.0,-8.0625
0,72,33,32,77,189,77,42,32,0.42266845703125,0.26849365234375,-0.42877197265625,0.75189208984375,0.6923828125,-0.4609375,0.55078125,-14.5625,15.25,-7.625
0,70,34,32,82,197,77,41,35,0.42498779296875,0.26531982421875,-0.4288330078125,0.751708984375,0.68310546875,-0.4599609375,0.55078125,-12.3125,12.6875,-7.0625
0,66,34,28,72,159,82,41,30,0.42694091796875,0.2626953125,-0.42864990234375,0.7515869140625,0.681640625,-0.4541015625,0.5595703125,-9.6875,10.0625,-6.6875
0,67,34,29,74,203,84,36,30,0.42864990234375,0.260498046875,-0.4285888671875,0.75146484375,0.68603515625,-0.4384765625,0.56103515625,-9.375,7.6875,-5.5625
0,59,29,32,72,199,80,33,32,0.43011474609375,0.2586669921875,-0.4288330078125,0.7510986328125,0.68701171875,-0.43701171875,0.55419921875,-9.8125,4.9375,-5.25
0,58,29,32,64,188,75,32,32,0.43121337890625,0.2572021484375,-0.4293212890625,0.75067138671875,0.69287109375,-0.4482421875,0.55029296875,-8.9375,1.9375,-4.6875
0,59,32,34,66,198,78,37,31,0.431640625,0.25628662109375,-0.429931640625,0.75042724609375,0.69921875,-0.44873046875,0.54296875,-6.75,-1.125,-2.5625
0,63,30,35,64,216,88,37,32,0.43157958984375,0.25579833984375,-0.43060302734375,0.75018310546875,0.70849609375,-0.44970703125,0.53857421875,-5.0,-4.125,-0.75
0,62,30,35,71,182,95,38,34,0.430908203125,0.2557373046875,-0.43145751953125,0.7501220703125,0.70947265625,-0.447265625,0.52490234375,-3.375,-6.625,1.625
0,61,30,33,78,190,89,40,32,0.4298095703125,0.2562255859375,-0.4322509765625,0.7501220703125,0.72900390625,-0.44775390625,0.513671875,-0.375,-8.875,3.0
0,62,31,34,84,199,104,45,30,0.42828369140625,0.257080078125,-0.43328857421875,0.7501220703125,0.73486328125,-0.45166015625,0.494140625,0.625,-10.8125,4.125
0,57,29,34,78,186,122,43,30,0.42657470703125,0.2578125,-0.43438720703125,0.75018310546875,0.72998046875,-0.45654296875,0.4931640625,0.625,-11.1875,4.9375
0,64,30,32,80,153,112,42,29,0.4246826171875,0.2586669921875,-0.43536376953125,0.75042724609375,0.7392578125,-0.45849609375,0.484375,2.0625,-11.0,6.4375
0,66,30,32,70,167,102,42,28,0.4224853515625,0.259521484375,-0.436279296875,0.7508544921875,0.7431640625,-0.4716796875,0.4833984375,3.5625,-11.1875,7.125
0,69,32,31,61,159,119,43,27,0.420166015625,0.2603759765625,-0.43695068359375,0.75146484375,0.7421875,-0.47509765625,0.48193359375,5.5,-10.875,7.9375
0,65,31,31,65,172,106,42,29,0.41766357421875,0.26123046875,-0.43743896484375,0.75225830078125,0.74560546875,-0.4755859375,0.48046875,6.9375,-10.5,8.9375
0,62,28,29,65,161,84,41,30,0.41510009765625,0.26214599609375,-0.43768310546875,0.753173828125,0.740234375,-0.4716796875,0.48291015625,8.0,-10.25,9.0625
0,54,29,30,63,190,98,45,32,0.41259765625,0.262939453125,-0.43780517578125,0.75421142578125,0.732421875,-0.4736328125,0.47900390625,8.5625,-9.4375,9.0
0,52,28,30,64,171,97,47,29,0.41015625,0.26373291015625,-0.43768310546875,0.75537109375,0.740234375,-0.47998046875,0.484375,10.0,-8.75,8.8125
0,59,27,30,66,174,77,47,29,0.407470703125,0.26483154296875,-0.43731689453125,0.75665283203125,0.7451171875,-0.4833984375,0.4765625,12.9375,-8.9375,8.9375
0,64,29,30,60,174,88,45,28,0.40472412109375,0.26611328125,-0.43658447265625,0.75811767578125,0.74462890625,-0.47509765625,0.4736328125,14.6875,-8.9375,9.1875
0,66,29,31,62,191,89,51,31,0.40185546875,0.26751708984375,-0.435791015625,0.75958251953125,0.74267578125,-0.46142578125,0.4716796875,15.5625,-9.1875,9.625
0,59,30,32,70,177,81,50,27,0.3990478515625,0.26898193359375,-0.43475341796875,0.7611083984375,0.744140625,-0.4638671875,0.47509765625,16.375,-9.0,9.375
0,58,31,32,77,213,88,47,30,0.3961181640625,0.2705078125,-0.43359375,0.7628173828125,0.74755859375,-0.46533203125,0.47021484375,18.125,-8.625,9.9375
0,51,29,31,79,238,86,44,30,0.39312744140625,0.27191162109375,-0.43218994140625,0.7646484375,0.74169921875,-0.4541015625,0.47314453125,18.9375,-8.0625,10.6875
0,48,30,32,82,230,74,45,31,0.39007568359375,0.2734375,-0.4306640625,0.7664794921875,0.751953125,-0.45751953125,0.478515625,19.625,-7.8125,10.6875
0,56,32,30,79,211,74,40,27,0.38690185546875,0.27496337890625,-0.42913818359375,0.7684326171875,0.75,-0.4560546875,0.47119140625,20.375,-7.625,11.375
0,60,29,29,70,214,62,39,31,0.38348388671875,0.2764892578125,-0.427490234375,0.7705078125,0.7470703125,-0.458984375,0.47314453125,21.75,-8.3125,12.5
0,61,29,30,63,180,52,36,29,0.37994384765625,0.278076171875,-0.42572021484375,0.772705078125,0.7451171875,-0.45166015625,0.4794921875,22.5625,-8.4375,13.1875
0,61,30,31,58,147,55,36,31,0.37640380859375,0.27972412109375,-0.423828125,0.77484130859375,0.74169921875,-0.4443359375,0.4794921875,23.0,-8.375,13.0625
0,61,27,30,56,133,66,43,33,0.3729248046875,0.28125,-0.42193603515625,0.77703857421875,0.73876953125,-0.44482421875,0.47998046875,22.5625,-8.0625,13.125
0,48,24,31,55,169,58,42,33,0.36932373046875,0.28271484375,-0.4200439453125,0.7791748046875,0.744140625,-0.44873046875,0.482421875,22.75,-7.8125,13.6875
0,42,27,31,53,176,59,40,30,0.36553955078125,0.28424072265625,-0.41815185546875,0.78143310546875,0.73828125,-0.4443359375,0.482421875,23.25,-8.0625,14.5625
0,43,25,29,57,185,60,40,31,0.36163330078125,0.2857666015625,-0.41619873046875,0.78375244140625,0.7412109375,-0.44482421875,0.486328125,24.125,-8.6875,15.0625
0,54,27,31,57,180,62,41,30,0.35760498046875,0.2874755859375,-0.41412353515625,0.78607177734375,0.73876953125,-0.4404296875,0.48583984375,24.75,-9.3125,15.375
0,63,30,32,64,221,55,36,33,0.35357666015625,0.28924560546875,-0.412109375,0.788330078125,0.74267578125,-0.43505859375,0.48486328125,24.5,-9.3125,15.75
0,67,31,34,69,204,58,38,36,0.3494873046875,0.2908935546875,-0.41021728515625,0.79046630859375,0.7431640625,-0.43701171875,0.482421875,23.875,-9.125,16.0625
0,67,33,32,74,184,56,38,37,0.3453369140625,0.29266357421875,-0.4083251953125,0.79266357421875,0.73974609375,-0.44287109375,0.48583984375,24.125,-10.3125,15.875
0,67,34,34,75,206,68,39,37,0.34112548828125,0.294677734375,-0.40643310546875,0.79473876953125,0.75048828125,-0.44091796875,0.4833984375,24.9375,-11.0,15.75
0,58,32,33,79,227,64,43,38,0.33685302734375,0.29705810546875,-0.404541015625,0.796630859375,0.759765625,-0.4326171875,0.47412109375,24.9375,-12.125,15.25
0,60,31,31,68,186,61,41,36,0.33270263671875,0.299560546875,-0.40277099609375,0.79827880859375,0.765625,-0.4296875,0.46533203125,24.3125,-12.5625,14.8125
0,60,29,27,62,182,55,36,34,0.32855224609375,0.30218505859375,-0.40093994140625,0.7999267578125,0.767578125,-0.4296875,0.46728515625,24.5,-13.25,14.4375
0,61,25,30,60,201,66,38,33,0.32421875,0.30511474609375,-0.399169921875,0.801513671875,0.7724609375,-0.42724609375,0.4560546875,25.375,-14.4375,14.625
0,61,34,30,54,172,53,43,38,0.31988525390625,0.3082275390625,-0.39727783203125,0.802978515625,0.78369140625,-0.4150390625,0.45654296875,25.75,-14.9375,14.4375
0,60,35,29,46,167,53,41,36,0.31573486328125,0.31146240234375,-0.3955078125,0.80426025390625,0.78759765625,-0.40283203125,0.4501953125,24.1875,-15.5625,14.0625
0,47,34,31,49,169,56,41,34,0.31170654296875,0.31463623046875,-0.39398193359375,0.80535888671875,0.7939453125,-0.40625,0.4453125,22.6875,-14.8125,13.5625
0,47,34,33,62,176,58,42,32,0.30780029296875,0.31768798828125,-0.39251708984375,0.80633544921875,0.79833984375,-0.4033203125,0.43896484375,21.875,-14.3125,13.4375
0,46,44,30,56,160,47,50,32,0.30401611328125,0.32073974609375,-0.39117431640625,0.8072509765625,0.8046875,-0.40283203125,0.43505859375,21.0,-14.3125,13.125
0,51,40,28,53,162,58,48,26,0.30035400390625,0.32379150390625,-0.389892578125,0.8079833984375,0.8125,-0.400390625,0.42626953125,20.1875,-13.625,12.75
0,52,41,30,54,137,62,44,26,0.2969970703125,0.32659912109375,-0.38873291015625,0.8087158203125,0.81298828125,-0.39404296875,0.43310546875,18.0625,-12.5625,12.1875
0,52,41,28,52,139,58,42,24,0.29400634765625,0.3289794921875,-0.3878173828125,0.80926513671875,0.79931640625,-0.38916015625,0.4345703125,15.0625,-11.375,11.25
0,49,45,30,61,146,61,42,29,0.29144287109375,0.3311767578125,-0.386962890625,0.8096923828125,0.7958984375,-0.39111328125,0.43359375,13.4375,-9.9375,9.625
0,50,41,28,61,146,63,34,29,0.289306640625,0.333251953125,-0.38616943359375,0.80999755859375,0.81005859375,-0.3876953125,0.4345703125,11.6875,-8.4375,8.25
0,52,40,28,61,148,57,33,29,0.28753662109375,0.33514404296875,-0.3856201171875,0.81005859375,0.806640625,-0.38671875,0.427734375,9.0,-7.5,6.625
0,53,40,27,66,148,47,34,28,0.2862548828125,0.3369140625,-0.38531494140625,0.8099365234375,0.80322265625,-0.388671875,0.4267578125,6.5625,-7.25,4.625
0,53,39,30,68,169,57,35,32,0.2852783203125,0.33856201171875,-0.3851318359375,0.8096923828125,0.810546875,-0.39697265625,0.43701171875,4.8125,-6.6875,3.25
0,48,35,27,54,218,55,38,26,0.28460693359375,0.340087890625,-0.38519287109375,0.80926513671875,0.8076171875,-0.40380859375,0.43798828125,2.75,-6.1875,1.6875
0,49,30,28,55,221,56,36,28,0.2843017578125,0.34136962890625,-0.3853759765625,0.8087158203125,0.80029296875,-0.4013671875,0.439453125,0.4375,-5.375,0.625
0,42,29,33,58,223,54,37,27,0.2843017578125,0.3421630859375,-0.3856201171875,0.80828857421875,0.77099609375,-0.39990234375,0.44970703125,-1.375,-4.125,-0.5625
0,43,26,33,51,239,67,36,29,0.28448486328125,0.34271240234375,-0.38580322265625,0.80792236328125,0.763671875,-0.39990234375,0.4541015625,-1.6875,-2.8125,-1.125
0,43,31,32,50,222,64,36,24,0.28497314453125,0.34320068359375,-0.38592529296875,0.8074951171875,0.78564453125,-0.39453125,0.4501953125,-2.0625,-1.0,-1.5
0,43,29,32,48,155,61,45,29,0.28619384765625,0.34356689453125,-0.38616943359375,0.8067626953125,0.802734375,-0.3701171875,0.443359375,-5.9375,1.0,-3.3125
0,40,26,35,50,176,60,45,28,0.287841796875,0.3436279296875,-0.38720703125,0.8056640625,0.78515625,-0.384765625,0.44091796875,-10.8125,1.375,-4.9375
0,40,27,31,45,163,64,44,29,0.28948974609375,0.3433837890625,-0.38836669921875,0.80462646484375,0.783203125,-0.40478515625,0.43994140625,-11.5625,1.875,-5.375
0,37,30,34,50,141,57,43,28,0.29095458984375,0.34307861328125,-0.389404296875,0.8037109375,0.79345703125,-0.41455078125,0.4521484375,-10.3125,2.125,-4.5
0,43,27,33,64,191,57,42,30,0.29229736328125,0.3427734375,-0.39056396484375,0.80279541015625,0.80322265625,-0.41845703125,0.44482421875,-10.5625,2.4375,-3.375
0,44,28,34,63,196,63,32,29,0.29364013671875,0.34222412109375,-0.3919677734375,0.80181884765625,0.79248046875,-0.41455078125,0.44384765625,-12.125,2.375,-3.0
0,50,29,34,65,180,69,36,29,0.29534912109375,0.34149169921875,-0.3934326171875,0.80078125,0.7744140625,-0.412109375,0.45361328125,-14.3125,2.8125,-4.125
0,47,30,34,78,206,67,41,29,0.29730224609375,0.3404541015625,-0.3948974609375,0.7998046875,0.76513671875,-0.4228515625,0.46142578125,-14.875,4.0625,-5.5625
0,44,28,32,80,209,64,42,30,0.29925537109375,0.33929443359375,-0.39617919921875,0.79888916015625,0.765625,-0.4326171875,0.46240234375,-13.875,4.625,-5.9375
0,38,28,31,71,177,60,42,28,0.3011474609375,0.33856201171875,-0.397216796875,0.79803466796875,0.7783203125,-0.4267578125,0.4462890625,-11.4375,4.6875,-6.25
0,41,28,31,69,190,75,39,27,0.3031005859375,0.337890625,-0.39813232421875,0.797119140625,0.78759765625,-0.41845703125,0.44140625,-11.375,4.875,-6.5625
0,40,28,32,78,196,78,42,26,0.30548095703125,0.33721923828125,-0.3992919921875,0.7958984375,0.80078125,-0.40673828125,0.43408203125,-14.0,5.6875,-7.125
0,44,27,31,65,186,76,41,29,0.3079833984375,0.33642578125,-0.4010009765625,0.79443359375,0.794921875,-0.41748046875,0.42626953125,-16.875,5.625,-7.75
0,44,27,30,61,182,79,43,30,0.3104248046875,0.3355712890625,-0.40277099609375,0.79296875,0.7880859375,-0.42431640625,0.4287109375,-17.375,4.875,-8.0625
0,44,26,30,66,176,89,45,32,0.3128662109375,0.33477783203125,-0.4044189453125,0.79144287109375,0.79296875,-0.4296875,0.4326171875,-16.6875,4.4375,-8.1875
0,41,28,28,65,155,74,45,31,0.31512451171875,0.3341064453125,-0.40618896484375,0.7899169921875,0.78955078125,-0.4345703125,0.427734375,-16.5625,3.4375,-8.125
0,35,28,28,55,147,73,40,32,0.31744384765625,0.3333740234375,-0.40802001953125,0.78839111328125,0.794921875,-0.42529296875,0.42724609375,-17.3125,3.625,-7.75
0,38,25,28,64,147,74,40,28,0.32000732421875,0.33251953125,-0.40997314453125,0.78668212890625,0.79296875,-0.4326171875,0.42822265625,-18.8125,4.0625,-8.5
0,46,25,28,78,194,77,39,27,0.3226318359375,0.33148193359375,-0.41192626953125,0.7850341796875,0.78955078125,-0.44921875,0.4248046875,-18.75,5.125,-9.4375
0,54,26,27,72,187,69,36,26,0.32513427734375,0.3304443359375,-0.4136962890625,0.78350830078125,0.7900390625,-0.45556640625,0.42236328125,-17.125,5.375,-9.5
0,54,24,29,72,192,69,36,29,0.3275146484375,0.32940673828125,-0.4151611328125,0.78216552734375,0.796875,-0.46142578125,0.4208984375,-14.9375,6.125,-9.375
0,55,25,28,84,237,67,43,30,0.33001708984375,0.32843017578125,-0.41656494140625,0.78082275390625,0.8017578125,-0.45361328125,0.4140625,-14.5625,6.8125,-9.4375
0,51,25,28,79,237,65,43,33,0.33282470703125,0.327392578125,-0.41790771484375,0.779296875,0.8076171875,-0.439453125,0.41015625,-15.9375,8.125,-10.0
0,57,27,27,64,213,64,43,33,0.3360595703125,0.325927734375,-0.41937255859375,0.77777099609375,0.79345703125,-0.43603515625,0.4130859375,-18.3125,9.625,-11.3125
0,53,27,30,69,218,64,45,33,0.339599609375,0.32427978515625,-0.42071533203125,0.77618408203125,0.78466796875,-0.4423828125,0.41943359375,-18.8125,11.3125,-12.9375
0,54,27,30,72,210,65,45,31,0.3433837890625,0.32244873046875,-0.42181396484375,0.77471923828125,0.7822265625,-0.4453125,0.42431640625,-18.5,12.625,-14.0625
0,54,26,27,56,146,58,36,30,0.3472900390625,0.3204345703125,-0.42279052734375,0.77325439453125,0.7783203125,-0.4443359375,0.42919921875,-18.4375,13.875,-14.8125
0,54,27,29,74,209,80,43,29,0.35137939453125,0.31829833984375,-0.4237060546875,0.77178955078125,0.77880859375,-0.4423828125,0.42626953125,-18.5625,15.1875,-15.25
0,41,24,29,82,239,76,45,30,0.35577392578125,0.31591796875,-0.4248046875,0.7701416015625,0.787109375,-0.44189453125,0.423828125,-20.625,16.625,-15.5625
0,41,24,27,77,240,76,43,29,0.3602294921875,0.31317138671875,-0.426025390625,0.76849365234375,0.76416015625,-0.4462890625,0.4326171875,-22.4375,17.25,-16.0
0,45,23,26,76,275,79,44,29,0.36492919921875,0.310302734375,-0.42694091796875,0.7669677734375,0.7626953125,-0.44140625,0.44775390625,-22.0625,18.3125,-16.375
0,53,25,29,80,278,84,48,30,0.36956787109375,0.307373046875,-0.427734375,0.76544189453125,0.76611328125,-0.4423828125,0.44921875,-21.375,19.0,-16.4375
0,53,24,31,72,226,75,41,27,0.374267578125,0.304443359375,-0.42864990234375,0.76385498046875,0.77001953125,-0.43408203125,0.44384765625,-22.125,19.4375,-16.3125
0,54,24,33,70,214,88,42,29,0.37890625,0.30133056640625,-0.429931640625,0.7620849609375,0.775390625,-0.4375,0.443359375,-24.1875,18.75,-15.0625
0,49,24,35,74,236,91,42,29,0.38348388671875,0.2982177734375,-0.43157958984375,0.76007080078125,0.77294921875,-0.4404296875,0.45068359375,-26.5,17.5,-14.6875
0,54,24,34,73,195,87,41,28,0.38787841796875,0.294921875,-0.43310546875,0.75823974609375,0.73974609375,-0.43896484375,0.46240234375,-25.875,16.625,-14.5625
0,44,24,35,75,211,110,35,26,0.39208984375,0.29180908203125,-0.43389892578125,0.7568359375,0.71142578125,-0.439453125,0.48193359375,-21.625,16.0625,-15.1875
0,44,28,33,66,211,105,32,27,0.39642333984375,0.28900146484375,-0.4339599609375,0.755615234375,0.73095703125,-0.4345703125,0.49658203125,-17.9375,16.875,-16.0625
0,44,31,30,67,180,93,26,23,0.4007568359375,0.2860107421875,-0.43414306640625,0.75439453125,0.75634765625,-0.43701171875,0.49755859375,-18.75,18.5,-15.3125
0,52,33,30,79,171,92,25,22,0.4049072265625,0.2823486328125,-0.4351806640625,0.7529296875,0.7431640625,-0.46533203125,0.4931640625,-22.875,18.3125,-13.6875
0,59,33,32,78,169,94,28,22,0.40850830078125,0.27862548828125,-0.43658447265625,0.7515869140625,0.72314453125,-0.4853515625,0.490234375,-23.0,16.4375,-11.625
0,63,33,29,72,172,72,40,25,0.41156005859375,0.2752685546875,-0.437744140625,0.75042724609375,0.70556640625,-0.4794921875,0.4970703125,-20.125,13.3125,-10.5
0,65,33,29,82,197,77,41,25,0.41461181640625,0.272216796875,-0.43865966796875,0.74932861328125,0.697265625,-0.46337890625,0.51171875,-18.75,12.125,-10.5
0,64,31,31,81,219,90,46,26,0.41766357421875,0.26922607421875,-0.43927001953125,0.74835205078125,0.69775390625,-0.47119140625,0.5146484375,-17.3125,12.4375,-11.1875
0,58,30,30,65,198,87,46,27,0.42071533203125,0.2662353515625,-0.4395751953125,0.74755859375,0.69287109375,-0.47705078125,0.5205078125,-15.25,13.375,-11.6875
0,51,29,33,70,205,90,46,28,0.423583984375,0.263427734375,-0.43951416015625,0.7469482421875,0.69580078125,-0.48193359375,0.52587890625,-12.4375,13.5,-11.3125
0,50,31,35,80,206,95,38,30,0.42608642578125,0.2607421875,-0.43902587890625,0.74676513671875,0.6943359375,-0.484375,0.53076171875,-8.5625,13.375,-10.3125
0,49,27,34,77,202,88,38,30,0.42828369140625,0.2584228515625,-0.4383544921875,0.7467041015625,0.71435546875,-0.47705078125,0.53076171875,-6.1875,12.75,-8.375
0,57,32,33,81,174,76,34,29,0.4300537109375,0.25634765625,-0.4378662109375,0.7467041015625,0.70703125,-0.47119140625,0.52978515625,-5.9375,10.5625,-6.75
0,63,31,37,128,255,81,43,37,0.43133544921875,0.25457763671875,-0.4373779296875,0.746826171875,0.6962890625,-0.4677734375,0.53271484375,-4.125,7.4375,-5.0625
0,71,31,35,133,268,86,48,44,0.43206787109375,0.25341796875,-0.43682861328125,0.74713134765625,0.69921875,-0.45263671875,0.5205078125,-1.1875,4.875,-3.0
0,79,34,34,131,246,71,53,43,0.43243408203125,0.2525634765625,-0.43646240234375,0.7474365234375,0.69580078125,-0.44482421875,0.5224609375,-0.875,2.125,-1.875
0,78,38,33,131,246,80,54,44,0.4324951171875,0.25250244140625,-0.435791015625,0.747802734375,0.70947265625,-0.4521484375,0.5283203125,3.125,-1.0,-2.375
0,73,34,34,129,273,83,57,48,0.43194580078125,0.2529296875,-0.435546875,0.74810791015625,0.72314453125,-0.45068359375,0.513671875,3.3125,-4.25,-0.375
0,84,36,32,91,232,93,56,47,0.430908203125,0.25347900390625,-0.43572998046875,0.7484130859375,0.71142578125,-0.45751953125,0.50537109375,3.375,-7.3125,1.8125
0,77,42,31,81,233,98,52,42,0.42938232421875,0.2542724609375,-0.43572998046875,0.7490234375,0.720703125,-0.4580078125,0.51171875,5.75,-8.5,3.5625
0,70,41,30,81,240,105,49,42,0.42742919921875,0.2550048828125,-0.43585205078125,0.74981689453125,0.7255859375,-0.4609375,0.513671875,6.0,-9.5625,6.375
0,80,39,33,77,239,108,51,43,0.4251708984375,0.25567626953125,-0.43603515625,0.75079345703125,0.71337890625,-0.47265625,0.5029296875,7.5,-9.9375,7.625
0,93,42,32,68,213,109,48,45,0.42254638671875,0.25640869140625,-0.43603515625,0.75201416015625,0.71923828125,-0.470703125,0.50048828125,9.4375,-9.625,9.625
0,82,43,31,67,203,98,49,43,0.4197998046875,0.25714111328125,-0.435791015625,0.75347900390625,0.7216796875,-0.4736328125,0.498046875,11.1875,-8.9375,10.5625
0,82,44,34,79,181,88,50,40,0.4168701171875,0.2578125,-0.43536376953125,0.75506591796875,0.72216796875,-0.474609375,0.4970703125,12.5625,-8.5,11.1875
0,95,44,37,116,172,86,54,47,0.41387939453125,0.2586669921875,-0.43475341796875,0.75677490234375,0.72998046875,-0.4794921875,0.49755859375,14.25,-8.5,11.5
0,86,43,36,125,203,77,59,45,0.41070556640625,0.25958251953125,-0.43389892578125,0.7586669921875,0.7294921875,-0.48095703125,0.4951171875,16.3125,-8.125,12.0625
0,77,40,38,127,209,76,64,45,0.407470703125,0.26068115234375,-0.432861328125,0.76068115234375,0.7216796875,-0.48095703125,0.4921875,17.9375,-8.6875,12.0625
0,77,41,38,123,188,88,67,43,0.4041748046875,0.26214599609375,-0.43157958984375,0.76263427734375,0.7197265625,-0.47216796875,0.494140625,19.3125,-9.875,11.0625
0,85,35,39,120,193,80,67,45,0.40081787109375,0.26385498046875,-0.4300537109375,0.76470947265625,0.72802734375,-0.46875,0.50146484375,21.3125,-10.25,11.25
0,74,38,37,97,200,80,66,60,0.39739990234375,0.265625,-0.42840576171875,0.76678466796875,0.73095703125,-0.4609375,0.498046875,22.0,-10.125,11.625
0,78,42,40,95,149,83,69,63,0.3939208984375,0.267333984375,-0.42645263671875,0.76904296875,0.73291015625,-0.458984375,0.494140625,23.375,-8.875,12.0
0,86,43,44,105,149,101,70,62,0.39019775390625,0.26910400390625,-0.42449951171875,0.77142333984375,0.7314453125,-0.44873046875,0.5,24.1875,-9.625,13.625
0,86,42,43,113,162,89,64,63,0.3863525390625,0.27099609375,-0.42254638671875,0.77374267578125,0.7177734375,-0.45654296875,0.5029296875,24.5625,-11.4375,13.0625
0,77,42,42,132,159,91,63,64,0.3822021484375,0.2733154296875,-0.4205322265625,0.77606201171875,0.73046875,-0.44091796875,0.48974609375,26.25,-12.4375,14.5625
0,75,41,41,128,151,86,60,44,0.378173828125,0.275634765625,-0.41851806640625,0.7783203125,0.7412109375,-0.42822265625,0.48974609375,25.5625,-11.8125,14.8125
0,81,40,39,124,173,90,55,44,0.3740234375,0.27764892578125,-0.416748046875,0.780517578125,0.72998046875,-0.43603515625,0.49072265625,23.875,-11.75,15.4375
0,70,38,35,118,165,87,51,41,0.36962890625,0.2799072265625,-0.41497802734375,0.78277587890625,0.72802734375,-0.43896484375,0.49560546875,25.1875,-13.4375,16.0625
0,73,36,35,123,165,90,50,40,0.3648681640625,0.2823486328125,-0.41314697265625,0.78515625,0.73388671875,-0.43408203125,0.49853515625,26.3125,-15.125,17.6875
0,76,38,31,97,183,93,50,37,0.3597412109375,0.2850341796875,-0.4112548828125,0.7874755859375,0.7353515625,-0.4287109375,0.4912109375,27.5625,-16.5,18.8125
0,75,34,31,94,199,92,56,38,0.3546142578125,0.28778076171875,-0.40960693359375,0.7896728515625,0.73828125,-0.42529296875,0.4853515625,26.625,-17.0625,19.25
0,66,33,33,114,186,84,54,36,0.349365234375,0.29058837890625,-0.40814208984375,0.791748046875,0.744140625,-0.43408203125,0.47705078125,26.0625,-17.375,19.4375
0,74,34,32,114,205,61,55,36,0.34393310546875,0.29339599609375,-0.40655517578125,0.79388427734375,0.75048828125,-0.43798828125,0.48486328125,26.9375,-18.0,20.0625
0,71,36,36,108,194,67,64,38,0.33837890625,0.29632568359375,-0.405029296875,0.7960205078125,0.74951171875,-0.4375,0.47265625,27.5,-18.5625,20.5625
0,78,33,37,112,174,66,67,42,0.33270263671875,0.29962158203125,-0.4034423828125,0.7979736328125,0.7626953125,-0.43701171875,0.46435546875,28.3125,-19.5,20.1875
0,76,35,41,107,174,68,85,46,0.32708740234375,0.3031005859375,-0.40179443359375,0.7998046875,0.7666015625,-0.4384765625,0.45166015625,28.9375,-19.9375,19.5
0,87,33,37,86,176,67,88,49,0.321533203125,0.306640625,-0.40032958984375,0.8013916015625,0.77734375,-0.4345703125,0.4501953125,27.625,-20.5625,19.0625
0,83,36,37,94,144,66,87,51,0.316162109375,0.31036376953125,-0.39886474609375,0.8028564453125,0.78125,-0.4326171875,0.44384765625,27.3125,-20.5625,17.5
0,92,39,36,93,162,56,81,50,0.3109130859375,0.314208984375,-0.397216796875,0.80419921875,0.79296875,-0.419921875,0.44140625,27.625,-20.4375,17.4375
0,91,44,40,110,194,61,94,57,0.30596923828125,0.31805419921875,-0.39556884765625,0.805419921875,0.7958984375,-0.41552734375,0.43408203125,26.6875,-19.9375,16.1875
0,104,49,42,116,183,65,83,57,0.30133056640625,0.32171630859375,-0.39404296875,0.80645751953125,0.80224609375,-0.4130859375,0.42626953125,25.0,-18.25,15.0625
0,99,56,42,119,195,66,81,55,0.29693603515625,0.3255615234375,-0.39239501953125,0.807373046875,0.81396484375,-0.41015625,0.42236328125,25.0,-18.375,13.625
0,100,60,43,136,214,67,84,54,0.29278564453125,0.3292236328125,-0.39093017578125,0.80804443359375,0.81494140625,-0.40234375,0.41845703125,22.6875,-17.625,12.875
0,96,59,42,132,218,67,83,53,0.2889404296875,0.332763671875,-0.38958740234375,0.80865478515625,0.81640625,-0.4033203125,0.4169921875,21.4375,-16.875,12.0
0,88,57,37,112,201,56,67,49,0.2852783203125,0.336181640625,-0.3883056640625,0.80914306640625,0.81884765625,-0.3935546875,0.41259765625,20.125,-15.75,11.625
0,74,52,34,118,200,59,61,61,0.281982421875,0.33953857421875,-0.3870849609375,0.80950927734375,0.82958984375,-0.3974609375,0.40673828125,18.8125,-14.75,9.875
0,77,49,34,117,185,79,76,63,0.27899169921875,0.3427734375,-0.38604736328125,0.80963134765625,0.83154296875,-0.39990234375,0.4013671875,17.0,-14.375,8.625
0,79,47,32,83,172,79,73,63,0.2760009765625,0.34619140625,-0.38519287109375,0.8096923828125,0.830078125,-0.40283203125,0.39794921875,16.3125,-15.5625,8.1875
0,76,45,36,111,173,82,75,65,0.273193359375,0.349365234375,-0.38427734375,0.8096923828125,0.82958984375,-0.3955078125,0.4033203125,15.3125,-14.5625,7.5625
0,78,47,43,136,161,83,78,64,0.27105712890625,0.3525390625,-0.38348388671875,0.80938720703125,0.83447265625,-0.37841796875,0.3974609375,12.375,-13.6875,5.4375
0,80,47,40,126,170,75,77,50,0.269775390625,0.35540771484375,-0.3829345703125,0.808837890625,0.81591796875,-0.37451171875,0.4013671875,8.375,-12.5625,1.6875
0,76,45,40,128,165,56,61,51,0.2691650390625,0.3580322265625,-0.38250732421875,0.80810546875,0.8095703125,-0.380859375,0.40576171875,5.5,-11.25,-1.625
0,71,39,40,129,164,54,62,50,0.2691650390625,0.3602294921875,-0.38214111328125,0.8072509765625,0.8076171875,-0.375,0.41552734375,2.625,-8.6875,-3.6875
0,69,40,37,108,143,46,67,50,0.269775390625,0.36175537109375,-0.3818359375,0.80657958984375,0.802734375,-0.3623046875,0.4208984375,-0.0625,-4.875,-4.1875
0,65,38,31,80,149,58,71,53,0.27099609375,0.3623046875,-0.3818359375,0.805908203125,0.81494140625,-0.37255859375,0.4365234375,-4.375,-0.25,-4.5625
0,64,44,29,76,145,57,71,54,0.27239990234375,0.36236572265625,-0.3822021484375,0.80517578125,0.81640625,-0.384765625,0.42041015625,-6.5,3.0625,-4.5
0,73,43,31,82,189,63,69,52,0.27386474609375,0.36212158203125,-0.3828125,0.80450439453125,0.8056640625,-0.3828125,0.40576171875,-7.625,4.375,-3.6875
0,77,44,32,83,189,64,69,52,0.27557373046875,0.36175537109375,-0.3834228515625,0.8038330078125,0.81689453125,-0.380859375,0.408203125,-8.5625,5.9375,-4.125
0,81,43,31,87,182,68,63,53,0.27734375,0.361083984375,-0.3841552734375,0.80316162109375,0.80859375,-0.38330078125,0.4169921875,-9.875,6.1875,-3.625
0,79,43,32,91,184,59,61,50,0.279052734375,0.36016845703125,-0.385009765625,0.80255126953125,0.81591796875,-0.3876953125,0.42041015625,-10.5625,7.4375,-2.75
0,77,36,34,93,191,59,62,51,0.2808837890625,0.35888671875,-0.38629150390625,0.8018798828125,0.82080078125,-0.39501953125,0.40966796875,-13.0625,9.125,-2.125
0,63,33,31,81,149,51,60,49,0.28265380859375,0.3575439453125,-0.3878173828125,0.80108642578125,0.81787109375,-0.40625,0.40087890625,-13.5625,9.25,-1.9375
0,66,33,30,89,164,54,61,49,0.2847900390625,0.3558349609375,-0.38909912109375,0.80047607421875,0.80810546875,-0.3974609375,0.41845703125,-14.375,11.0625,-2.375
0,76,37,30,89,189,65,63,48,0.287353515625,0.35394287109375,-0.39056396484375,0.7996826171875,0.80126953125,-0.38720703125,0.41552734375,-17.25,12.5,-3.6875
0,84,40,28,85,203,63,56,46,0.2904052734375,0.3515625,-0.39215087890625,0.79888916015625,0.80517578125,-0.404296875,0.4326171875,-19.625,14.4375,-5.5
0,85,40,30,91,206,73,52,43,0.2938232421875,0.34906005859375,-0.39398193359375,0.7978515625,0.80029296875,-0.4091796875,0.42578125,-21.5,15.4375,-6.9375
0,93,42,31,95,205,86,55,44,0.29730224609375,0.3468017578125,-0.39581298828125,0.796630859375,0.8056640625,-0.43115234375,0.423828125,-21.0625,14.5,-8.8125
0,102,41,33,86,199,84,63,44,0.30096435546875,0.34454345703125,-0.3978271484375,0.79522705078125,0.7998046875,-0.4296875,0.421875,-22.625,13.875,-9.875
0,93,38,32,85,213,80,64,41,0.30499267578125,0.34222412109375,-0.39984130859375,0.79364013671875,0.79296875,-0.43603515625,0.431640625,-24.0,14.125,-12.1875
0,97,38,37,104,226,83,62,43,0.30908203125,0.33990478515625,-0.40191650390625,0.79205322265625,0.78564453125,-0.44287109375,0.43408203125,-24.25,13.875,-13.0
0,93,40,34,103,213,75,71,44,0.313232421875,0.33758544921875,-0.40362548828125,0.79052734375,0.76806640625,-0.4423828125,0.4462890625,-23.0625,13.5,-14.4375
0,90,39,34,98,209,63,70,45,0.3172607421875,0.3355712890625,-0.40521240234375,0.7889404296875,0.7724609375,-0.4462890625,0.44091796875,-21.625,12.375,-14.75
0,73,38,33,97,246,63,58,45,0.32147216796875,0.33367919921875,-0.4066162109375,0.787353515625,0.77587890625,-0.43603515625,0.44775390625,-21.4375,12.0,-15.6875
0,69,38,37,104,232,57,68,54,0.32568359375,0.33172607421875,-0.40826416015625,0.78558349609375,0.77685546875,-0.43603515625,0.44482421875,-22.5625,12.0,-15.5
0,55,38,32,80,197,53,70,51,0.33001708984375,0.32965087890625,-0.40972900390625,0.78387451171875,0.775390625,-0.43408203125,0.45068359375,-22.8125,12.625,-15.9375
0,79,44,33,73,203,55,66,51,0.3341064453125,0.32763671875,-0.41131591796875,0.78216552734375,0.7744140625,-0.43212890625,0.447265625,-22.375,12.1875,-14.625
0,79,46,34,82,231,51,65,47,0.337890625,0.325439453125,-0.412841796875,0.7806396484375,0.7646484375,-0.43701171875,0.44384765625,-21.5625,12.1875,-13.375
0,76,47,34,94,196,56,68,48,0.34149169921875,0.322998046875,-0.414306640625,0.779296875,0.7578125,-0.4345703125,0.45654296875,-20.875,12.75,-11.5625
0,75,46,32,84,190,51,56,39,0.34478759765625,0.32037353515625,-0.4156494140625,0.7781982421875,0.75830078125,-0.4365234375,0.45751953125,-19.9375,13.5625,-9.6875
0,85,48,35,98,235,64,58,42,0.34808349609375,0.3172607421875,-0.41705322265625,0.77728271484375,0.75634765625,-0.44189453125,0.46728515625,-20.8125,15.5625,-7.875
0,98,38,36,99,225,62,59,41,0.3511962890625,0.31378173828125,-0.418701171875,0.77642822265625,0.7529296875,-0.4609375,0.4580078125,-21.3125,16.5625,-6.8125
0,100,41,34,90,202,70,66,41,0.3541259765625,0.31011962890625,-0.420166015625,0.7757568359375,0.740234375,-0.466796875,0.47412109375,-20.0625,17.0625,-6.1875
0,107,40,33,77,186,64,64,42,0.35675048828125,0.30657958984375,-0.4212646484375,0.77532958984375,0.74462890625,-0.48193359375,0.47607421875,-17.25,17.0625,-5.5625
0,110,41,31,69,170,64,63,42,0.35919189453125,0.3031005859375,-0.4222412109375,0.77508544921875,0.73583984375,-0.4775390625,0.47314453125,-15.25,16.9375,-4.8125
0,112,40,28,62,105,51,57,39,0.36138916015625,0.29998779296875,-0.422607421875,0.77508544921875,0.72314453125,-0.4658203125,0.4833984375,-11.75,15.375,-4.5625
0,89,42,27,58,104,52,50,35,0.36322021484375,0.29754638671875,-0.422607421875,0.775146484375,0.7216796875,-0.453125,0.48486328125,-8.25,13.0,-3.9375
0,84,37,26,61,105,35,41,38,0.36474609375,0.29583740234375,-0.4224853515625,0.775146484375,0.736328125,-0.4296875,0.4833984375,-6.3125,9.5,-3.625
0,81,40,26,64,127,33,41,40,0.36614990234375,0.29449462890625,-0.42236328125,0.77508544921875,0.75,-0.43115234375,0.50537109375,-6.5,6.8125,-3.3125
0,87,39,29,80,140,39,53,44,0.36688232421875,0.2928466796875,-0.42266845703125,0.77520751953125,0.748046875,-0.46435546875,0.51611328125,-6.25,5.75,-0.375
0,85,38,34,86,137,38,64,47,0.366943359375,0.289794921875,-0.42315673828125,0.77606201171875,0.71728515625,-0.47216796875,0.5419921875,-7.8125,9.125,7.0625
0,82,39,35,92,188,51,63,48,0.366455078125,0.2861328125,-0.4239501953125,0.7772216796875,0.6875,-0.44287109375,0.53369140625,-9.75,10.0,12.8125
0,88,40,36,92,187,61,64,48,0.36627197265625,0.281982421875,-0.4244384765625,0.77850341796875,0.67138671875,-0.4755859375,0.5576171875,-9.25,12.125,11.0625
0,81,37,37,94,173,61,61,43,0.365966796875,0.27716064453125,-0.42510986328125,0.780029296875,0.638671875,-0.505859375,0.54345703125,-9.375,15.125,11.3125
0,75,38,35,94,179,77,65,38,0.3653564453125,0.27301025390625,-0.4251708984375,0.78173828125,0.630859375,-0.509765625,0.541015625,-3.875,13.3125,10.75
0,65,36,30,89,205,78,59,37,0.36474609375,0.26971435546875,-0.42486572265625,0.78338623046875,0.65869140625,-0.501953125,0.54052734375,-1.125,11.5625,9.5625
0,65,37,33,95,174,78,59,38,0.36468505859375,0.26666259765625,-0.42474365234375,0.78448486328125,0.6806640625,-0.51904296875,0.53857421875,-3.0625,11.75,5.875
0,56,38,33,100,183,71,58,36,0.36431884765625,0.26409912109375,-0.425048828125,0.785400390625,0.673828125,-0.5478515625,0.52587890625,-2.1875,8.125,5.0
0,64,38,34,102,240,87,66,38,0.36322021484375,0.26251220703125,-0.42498779296875,0.78643798828125,0.6416015625,-0.5205078125,0.51904296875,2.0625,2.3125,5.875
0,62,36,36,99,241,76,57,37,0.362060546875,0.26214599609375,-0.42413330078125,0.78753662109375,0.6328125,-0.47705078125,0.5361328125,6.125,-2.4375,4.375
0,66,33,36,92,237,76,53,35,0.36126708984375,0.2625732421875,-0.42279052734375,0.78851318359375,0.65185546875,-0.46728515625,0.55859375,8.5,-4.875,0.75
0,65,33,34,84,228,94,55,37,0.36016845703125,0.26373291015625,-0.42156982421875,0.78924560546875,0.6806640625,-0.46044921875,0.5322265625,9.6875,-7.0625,1.125
0,63,30,33,80,231,99,55,35,0.35870361328125,0.26507568359375,-0.42083740234375,0.78985595703125,0.6884765625,-0.43310546875,0.51611328125,7.875,-9.125,4.5625
0,63,33,35,92,196,89,53,34,0.35687255859375,0.2664794921875,-0.42095947265625,0.7901611328125,0.7060546875,-0.41943359375,0.4970703125,3.9375,-10.6875,7.8125
0,57,33,31,86,185,86,47,32,0.354736328125,0.26776123046875,-0.4217529296875,0.790283203125,0.72705078125,-0.44189453125,0.494140625,1.6875,-11.875,10.0625
0,57,35,31,85,173,109,46,35,0.35186767578125,0.26885986328125,-0.42279052734375,0.7906494140625,0.72802734375,-0.46240234375,0.4912109375,2.4375,-13.1875,13.75
0,57,38,30,85,170,91,42,33,0.3482666015625,0.26995849609375,-0.42376708984375,0.79132080078125,0.73095703125,-0.46337890625,0.49267578125,4.1875,-14.1875,17.625
0,60,40,32,79,158,87,46,37,0.34429931640625,0.2708740234375,-0.42498779296875,0.7921142578125,0.71875,-0.47314453125,0.48486328125,4.0625,-14.5625,20.0
0,57,40,29,56,138,84,40,36,0.340087890625,0.27154541015625,-0.42633056640625,0.79296875,0.72412109375,-0.4765625,0.484375,3.375,-14.375,22.0625
0,66,40,31,56,158,98,41,40,0.33612060546875,0.2718505859375,-0.427978515625,0.793701171875,0.72802734375,-0.494140625,0.48876953125,0.875,-13.0,21.8125
0,61,40,33,57,150,81,37,38,0.33209228515625,0.271484375,-0.42999267578125,0.79437255859375,0.71435546875,-0.5302734375,0.48681640625,-1.25,-11.5625,22.0
0,64,35,31,52,152,78,40,35,0.3275146484375,0.270751953125,-0.43170166015625,0.79559326171875,0.67822265625,-0.552734375,0.48876953125,1.9375,-10.875,24.1875
0,62,34,28,49,154,80,33,31,0.32269287109375,0.2701416015625,-0.43292236328125,0.797119140625,0.669921875,-0.55712890625,0.4873046875,5.75,-11.0625,24.875
0,78,38,30,66,180,92,39,34,0.31781005859375,0.2701416015625,-0.43359375,0.7987060546875,0.68115234375,-0.57275390625,0.46630859375,10.6875,-10.75,22.6875
0,79,43,31,69,165,94,40,30,0.313232421875,0.2701416015625,-0.4337158203125,0.80047607421875,0.6845703125,-0.5615234375,0.46337890625,12.5,-9.0,21.75
0,82,43,29,75,197,104,45,29,0.30914306640625,0.270263671875,-0.43377685546875,0.802001953125,0.69189453125,-0.55322265625,0.45703125,11.625,-7.75,19.8125
0,89,43,32,80,195,104,45,32,0.30548095703125,0.2703857421875,-0.43389892578125,0.80328369140625,0.71630859375,-0.56787109375,0.4482421875,10.8125,-5.9375,17.6875
0,92,43,31,81,191,101,45,35,0.30224609375,0.27020263671875,-0.4339599609375,0.80450439453125,0.7158203125,-0.57421875,0.45947265625,9.5,-4.1875,16.5625
0,86,39,29,69,168,91,38,32,0.298828125,0.2698974609375,-0.43377685546875,0.80596923828125,0.69970703125,-0.60595703125,0.47412109375,11.5625,-4.125,15.4375
0,85,35,29,61,157,73,38,33,0.29522705078125,0.26971435546875,-0.4332275390625,0.80767822265625,0.69091796875,-0.599609375,0.4833984375,13.875,-4.8125,16.3125
0,87,40,29,52,116,44,31,31,0.29168701171875,0.2698974609375,-0.43231201171875,0.80938720703125,0.67919921875,-0.58349609375,0.48291015625,15.3125,-5.875,15.0625
0,76,37,26,51,131,59,29,29,0.28839111328125,0.2701416015625,-0.43133544921875,0.81103515625,0.6494140625,-0.57177734375,0.48828125,14.8125,-6.625,13.0625
0,91,39,27,49,133,59,29,33,0.28558349609375,0.27081298828125,-0.42974853515625,0.8126220703125,0.666015625,-0.59228515625,0.49951171875,17.6875,-6.5,8.4375
0,97,46,27,47,116,54,34,44,0.2830810546875,0.272705078125,-0.4276123046875,0.81402587890625,0.7177734375,-0.5791015625,0.48291015625,21.75,-8.3125,5.375
0,90,53,28,54,166,57,34,45,0.28057861328125,0.2750244140625,-0.42529296875,0.8153076171875,0.7001953125,-0.544921875,0.46923828125,22.4375,-9.625,4.75
0,85,48,26,52,168,55,41,46,0.27825927734375,0.277587890625,-0.42303466796875,0.81640625,0.681640625,-0.51953125,0.4560546875,21.5,-11.1875,3.1875
0,84,70,28,43,155,39,41,45,0.2762451171875,0.28094482421875,-0.42010498046875,0.81744384765625,0.6982421875,-0.51123046875,0.4765625,24.375,-13.4375,-0.375
0,69,71,29,41,152,38,42,41,0.27410888671875,0.2847900390625,-0.4169921875,0.81842041015625,0.71875,-0.4794921875,0.46630859375,25.9375,-14.5,0.375
0,44,73,29,43,156,40,38,31,0.27215576171875,0.28875732421875,-0.41387939453125,0.81927490234375,0.72900390625,-0.4501953125,0.451171875,24.6875,-14.25,0.5
0,50,66,28,67,201,38,37,31,0.27056884765625,0.2926025390625,-0.41119384765625,0.81982421875,0.74609375,-0.4365234375,0.4443359375,21.5625,-12.875,0.3125
0,51,66,29,73,217,53,30,32,0.26922607421875,0.2957763671875,-0.40887451171875,0.82025146484375,0.77294921875,-0.44677734375,0.443359375,18.375,-9.3125,1.125
0,50,44,28,75,223,61,32,32,0.2681884765625,0.298583984375,-0.40704345703125,0.82049560546875,0.78955078125,-0.43896484375,0.4248046875,15.375,-6.375,1.9375
0,56,40,28,84,252,107,40,32,0.26727294921875,0.3006591796875,-0.406005859375,0.820556640625,0.7900390625,-0.4443359375,0.416015625,10.0,-3.6875,3.875
0,59,27,30,84,250,111,41,31,0.2666015625,0.30218505859375,-0.40557861328125,0.82037353515625,0.78466796875,-0.45458984375,0.41162109375,6.25,-2.0625,3.625
0,59,31,27,62,185,126,41,28,0.26605224609375,0.30340576171875,-0.4052734375,0.82025146484375,0.78173828125,-0.47314453125,0.4228515625,5.1875,-1.1875,2.8125
0,66,36,29,59,187,134,46,30,0.26568603515625,0.30419921875,-0.40509033203125,0.8201904296875,0.77294921875,-0.47900390625,0.4306640625,3.4375,0.125,2.9375
0,77,41,28,61,191,138,44,29,0.26544189453125,0.3045654296875,-0.405029296875,0.8201904296875,0.75439453125,-0.4814453125,0.4443359375,2.1875,1.375,2.5625
0,78,41,29,60,168,117,39,40,0.26556396484375,0.30462646484375,-0.40478515625,0.8201904296875,0.73095703125,-0.48486328125,0.45361328125,1.4375,2.5625,0.375
0,84,44,29,71,168,117,39,41,0.26605224609375,0.30426025390625,-0.4044189453125,0.82037353515625,0.7109375,-0.48681640625,0.4755859375,0.6875,4.0625,-1.3125
0,82,43,30,74,177,137,49,43,0.26678466796875,0.30377197265625,-0.4036865234375,0.8206787109375,0.6962890625,-0.470703125,0.47998046875,1.25,5.5,-2.375
0,78,41,29,71,176,136,46,42,0.26788330078125,0.3033447265625,-0.40283203125,0.8209228515625,0.70751953125,-0.4462890625,0.4873046875,0.375,6.5,-2.9375
0,72,37,29,70,166,132,46,43,0.26947021484375,0.302734375,-0.40228271484375,0.82086181640625,0.70703125,-0.43310546875,0.48486328125,-3.125,7.125,-3.9375
0,64,38,29,79,174,136,44,32,0.2711181640625,0.3018798828125,-0.4022216796875,0.8206787109375,0.68896484375,-0.42919921875,0.48486328125,-6.5,7.25,-3.875
0,57,34,29,73,203,135,45,36,0.272705078125,0.30096435546875,-0.40234375,0.8204345703125,0.68115234375,-0.435546875,0.49951171875,-7.8125,5.9375,-3.375
0,56,33,31,80,224,102,39,34,0.27386474609375,0.300048828125,-0.4029541015625,0.820068359375,0.68359375,-0.4619140625,0.50439453125,-8.5625,4.0625,-2.25
0,52,31,29,84,214,88,41,36,0.27447509765625,0.2991943359375,-0.403564453125,0.81988525390625,0.69482421875,-0.48193359375,0.515625,-7.125,2.25,0.0625
0,59,28,31,83,234,102,42,35,0.27459716796875,0.29864501953125,-0.4046630859375,0.81951904296875,0.71044921875,-0.47412109375,0.5009765625,-8.3125,0.1875,3.1875
0,56,27,31,68,216,84,46,34,0.274658203125,0.29791259765625,-0.4063720703125,0.81890869140625,0.7041015625,-0.46435546875,0.5009765625,-12.25,-1.0,4.9375
0,61,34,30,66,189,90,46,31,0.27490234375,0.296875,-0.40887451171875,0.81793212890625,0.7041015625,-0.49169921875,0.50830078125,-17.25,-1.3125,4.5
0,62,38,34,60,193,92,43,34,0.2747802734375,0.2957763671875,-0.41162109375,0.8170166015625,0.69384765625,-0.5361328125,0.5009765625,-16.1875,-2.4375,4.375
0,65,40,35,79,226,95,41,34,0.27398681640625,0.29486083984375,-0.41387939453125,0.81646728515625,0.68994140625,-0.54052734375,0.494140625,-11.6875,-3.3125,7.0625
0,66,39,35,83,207,79,41,34,0.2730712890625,0.294189453125,-0.4158935546875,0.8160400390625,0.693359375,-0.51953125,0.49365234375,-10.375,-4.0,8.0625
0,67,41,33,82,240,90,36,35,0.272216796875,0.2923583984375,-0.41998291015625,0.8148193359375,0.68505859375,-0.53759765625,0.474609375,-11.6875,-1.6875,4.8125
0,66,41,37,87,254,82,38,34,0.27197265625,0.291748046875,-0.42181396484375,0.814208984375,0.68798828125,-0.537109375,0.4609375,-9.9375,-1.3125,3.6875
0,67,38,33,81,224,84,46,34,0.27203369140625,0.2913818359375,-0.42352294921875,0.81341552734375,0.716796875,-0.5546875,0.44873046875,-8.75,-0.75,1.6875
0,64,37,31,63,198,103,46,33,0.27203369140625,0.29107666015625,-0.42523193359375,0.81268310546875,0.72119140625,-0.55517578125,0.44189453125,-8.625,-0.5625,1.8125
0,74,41,34,71,205,101,45,36,0.27203369140625,0.2906494140625,-0.4268798828125,0.81195068359375,0.70263671875,-0.53466796875,0.453125,-9.8125,-1.375,2.625
0,75,40,33,73,165,91,44,38,0.2723388671875,0.29010009765625,-0.4283447265625,0.811279296875,0.70263671875,-0.548828125,0.4638671875,-9.375,-0.3125,0.6875
0,72,37,30,67,167,106,47,41,0.27276611328125,0.2891845703125,-0.429931640625,0.81060791015625,0.7080078125,-0.5732421875,0.4677734375,-10.0625,1.75,0.375
0,71,41,28,70,173,99,39,38,0.27288818359375,0.28814697265625,-0.4315185546875,0.81011962890625,0.68603515625,-0.572265625,0.45751953125,-9.375,1.5,1.75
0,77,41,28,65,165,78,39,40,0.27252197265625,0.2874755859375,-0.4327392578125,0.809814453125,0.6748046875,-0.56689453125,0.45654296875,-6.1875,-1.0,2.4375
0,59,41,23,48,165,76,37,38,0.27227783203125,0.2869873046875,-0.43359375,0.8095703125,0.666015625,-0.55224609375,0.46728515625,-4.8125,-1.75,1.875
0,72,42,26,48,165,76,45,45,0.27215576171875,0.28662109375,-0.434326171875,0.80938720703125,0.69140625,-0.58251953125,0.47900390625,-4.0,-1.25,0.3125
0,70,41,25,51,144,69,40,43,0.27178955078125,0.2867431640625,-0.4349365234375,0.80908203125,0.7373046875,-0.61572265625,0.46923828125,-1.375,-2.4375,0.0
0,69,41,29,61,154,74,41,44,0.2706298828125,0.28662109375,-0.435791015625,0.80908203125,0.70654296875,-0.61083984375,0.46435546875,-0.4375,-3.75,4.125
0,72,43,30,65,168,87,41,43,0.2694091796875,0.2864990234375,-0.43621826171875,0.809326171875,0.65625,-0.58349609375,0.486328125,-0.0625,-6.0,4.0625
0,72,41,30,69,167,84,51,46,0.268798828125,0.2867431640625,-0.43609619140625,0.80950927734375,0.66552734375,-0.5791015625,0.48583984375,2.1875,-4.6875,-0.3125
0,55,41,29,66,173,102,46,40,0.2686767578125,0.28717041015625,-0.4356689453125,0.80963134765625,0.67138671875,-0.5576171875,0.47900390625,2.5,-3.375,-2.4375
0,58,41,33,64,179,94,48,42,0.2691650390625,0.28765869140625,-0.43499755859375,0.80963134765625,0.65771484375,-0.5380859375,0.46826171875,2.3125,-2.125,-5.75
0,56,36,30,66,177,106,46,41,0.27032470703125,0.28826904296875,-0.43402099609375,0.8095703125,0.6630859375,-0.53955078125,0.4716796875,2.375,-0.375,-9.8125
0,56,36,29,61,164,95,45,40,0.27197265625,0.288818359375,-0.4326171875,0.8095703125,0.67626953125,-0.55029296875,0.4794921875,3.9375,1.6875,-12.75
0,61,41,30,56,169,103,37,38,0.2733154296875,0.2896728515625,-0.4312744140625,0.80950927734375,0.681640625,-0.54150390625,0.4462890625,5.75,1.375,-11.5
0,66,44,31,60,158,94,35,32,0.274658203125,0.29071044921875,-0.42950439453125,0.80963134765625,0.71533203125,-0.53515625,0.455078125,8.0625,1.8125,-11.125
0,69,44,31,70,161,109,36,29,0.27618408203125,0.2916259765625,-0.4278564453125,0.8096923828125,0.7431640625,-0.52978515625,0.46142578125,6.625,3.5625,-10.5625
0,72,54,30,59,145,92,42,29,0.27728271484375,0.2918701171875,-0.4267578125,0.80975341796875,0.73291015625,-0.5380859375,0.4462890625,4.875,5.125,-7.25
0,66,51,31,58,156,90,43,31,0.27789306640625,0.29168701171875,-0.4256591796875,0.81024169921875,0.70703125,-0.537109375,0.45458984375,5.625,5.4375,-3.875
0,69,51,32,69,147,91,43,31,0.2781982421875,0.2913818359375,-0.42437744140625,0.8109130859375,0.693359375,-0.515625,0.46728515625,6.375,4.8125,-2.0
0,64,47,31,67,141,88,42,33,0.2784423828125,0.291015625,-0.42291259765625,0.81170654296875,0.6796875,-0.505859375,0.478515625,6.625,4.8125,-1.4375
0,64,49,29,53,131,82,45,39,0.2786865234375,0.29058837890625,-0.42132568359375,0.8126220703125,0.66845703125,-0.5009765625,0.49169921875,7.375,4.375,-1.5
0,62,37,29,49,143,82,41,39,0.27886962890625,0.29010009765625,-0.41973876953125,0.81353759765625,0.66455078125,-0.48291015625,0.4970703125,6.4375,4.375,-0.75
0,56,37,30,50,146,83,40,39,0.27923583984375,0.2896728515625,-0.41839599609375,0.81427001953125,0.67236328125,-0.48486328125,0.5009765625,4.8125,4.0,-0.9375
0,64,33,30,43,144,74,38,36,0.279541015625,0.28924560546875,-0.41766357421875,0.81463623046875,0.69384765625,-0.4990234375,0.49365234375,1.9375,3.75,-0.6875
0,70,33,30,46,164,91,39,33,0.27960205078125,0.2890625,-0.41766357421875,0.81475830078125,0.701171875,-0.51220703125,0.47412109375,0.0,1.5625,0.8125
0,70,32,29,51,195,84,38,31,0.2791748046875,0.28900146484375,-0.417724609375,0.81488037109375,0.69140625,-0.5185546875,0.47900390625,0.6875,-0.875,1.8125
0,71,33,31,56,215,84,37,31,0.2786865234375,0.28924560546875,-0.41766357421875,0.81500244140625,0.69189453125,-0.52197265625,0.47900390625,2.0625,-2.25,1.1875
0,78,32,31,72,258,121,36,31,0.278076171875,0.289794921875,-0.4173583984375,0.81512451171875,0.69677734375,-0.52880859375,0.482421875,3.875,-3.75,0.625
0,64,31,31,70,255,121,45,29,0.2774658203125,0.2906494140625,-0.41705322265625,0.81524658203125,0.7099609375,-0.52099609375,0.47802734375,4.3125,-4.3125,0.5
0,55,30,30,75,248,107,47,32,0.27703857421875,0.2916259765625,-0.41656494140625,0.81524658203125,0.71435546875,-0.5068359375,0.46630859375,4.5625,-3.875,-0.25
0,55,31,30,73,253,108,43,29,0.27685546875,0.292724609375,-0.41619873046875,0.8150634765625,0.724609375,-0.50390625,0.45947265625,3.875,-3.5,-1.6875
0,58,36,28,70,244,113,42,32,0.27691650390625,0.29400634765625,-0.415771484375,0.8148193359375,0.7412109375,-0.50732421875,0.44775390625,4.1875,-2.6875,-2.875
0,51,39,30,71,201,74,49,34,0.27685546875,0.295166015625,-0.41510009765625,0.81475830078125,0.73779296875,-0.4990234375,0.44140625,5.8125,-2.0625,-1.9375
0,61,40,28,72,223,74,43,34,0.27679443359375,0.2962646484375,-0.41424560546875,0.8148193359375,0.74365234375,-0.46533203125,0.4462890625,5.5625,-0.9375,-0.1875
0,64,41,29,67,245,112,42,37,0.277099609375,0.296875,-0.41363525390625,0.8148193359375,0.74267578125,-0.4609375,0.45556640625,2.8125,1.1875,-0.5625
0,62,39,29,66,212,107,41,37,0.27740478515625,0.29705810546875,-0.41351318359375,0.814697265625,0.72998046875,-0.47412109375,0.44970703125,-0.125,1.875,0.0625
0,60,35,29,65,207,104,41,34,0.277099609375,0.297119140625,-0.413330078125,0.81488037109375,0.7099609375,-0.4716796875,0.45703125,1.25,0.625,2.875
0,87,32,27,55,187,105,43,32,0.2764892578125,0.29705810546875,-0.41265869140625,0.8154296875,0.7080078125,-0.47265625,0.47900390625,4.5,0.8125,4.4375
0,84,34,28,53,158,106,41,33,0.27581787109375,0.29718017578125,-0.412109375,0.81585693359375,0.74951171875,-0.47509765625,0.4814453125,3.5625,0.8125,5.5
0,85,37,28,50,110,63,41,29,0.274658203125,0.29693603515625,-0.4124755859375,0.816162109375,0.7509765625,-0.4970703125,0.474609375,0.4375,0.0,9.3125
0,82,38,26,50,141,57,42,28,0.2730712890625,0.29620361328125,-0.41326904296875,0.81658935546875,0.69580078125,-0.48486328125,0.48388671875,-2.25,-1.375,12.1875
0,83,37,28,50,143,71,44,28,0.2713623046875,0.2958984375,-0.4141845703125,0.81683349609375,0.6953125,-0.490234375,0.47265625,-1.6875,-3.625,11.5
0,73,41,27,52,142,67,33,29,0.26995849609375,0.29583740234375,-0.41510009765625,0.81683349609375,0.71142578125,-0.48046875,0.4833984375,-3.375,-4.4375,10.25
0,70,42,28,49,142,63,33,28,0.2684326171875,0.29547119140625,-0.4163818359375,0.81683349609375,0.6845703125,-0.4912109375,0.47265625,-4.8125,-4.3125,10.9375
0,68,40,28,56,194,63,32,30,0.266845703125,0.29510498046875,-0.4173583984375,0.8170166015625,0.6962890625,-0.50732421875,0.4736328125,-2.75,-3.5625,10.8125
0,71,42,30,58,190,66,39,31,0.26513671875,0.29437255859375,-0.4183349609375,0.81732177734375,0.7109375,-0.52294921875,0.48095703125,-2.4375,-1.5,12.3125
0,71,42,29,61,178,44,37,32,0.26312255859375,0.29315185546875,-0.419677734375,0.81768798828125,0.70068359375,-0.52294921875,0.4658203125,-3.8125,0.0,15.625
0,54,36,30,50,189,70,39,32,0.2611083984375,0.29132080078125,-0.42108154296875,0.81829833984375,0.6884765625,-0.52734375,0.47265625,-4.625,2.1875,17.0625
0,54,34,29,48,190,72,38,33,0.25946044921875,0.28875732421875,-0.42279052734375,0.81884765625,0.67431640625,-0.5283203125,0.4873046875,-8.8125,5.4375,17.6875
0,55,37,30,50,176,79,39,36,0.25811767578125,0.28570556640625,-0.42462158203125,0.81939697265625,0.673828125,-0.58544921875,0.50341796875,-9.375,7.4375,15.1875
0,49,36,30,47,158,93,35,36,0.2562255859375,0.28216552734375,-0.4261474609375,0.82037353515625,0.6240234375,-0.62646484375,0.5,-5.5,8.25,15.625
0,57,36,30,49,169,95,37,35,0.2540283203125,0.27911376953125,-0.42706298828125,0.8216552734375,0.60302734375,-0.61669921875,0.50244140625,-1.3125,6.125,15.75
0,66,36,32,68,215,97,37,34,0.2520751953125,0.2769775390625,-0.4273681640625,0.82281494140625,0.6103515625,-0.60791015625,0.505859375,1.9375,3.5,11.875
0,67,34,31,71,224,106,47,40,0.25091552734375,0.27545166015625,-0.4273681640625,0.82373046875,0.62353515625,-0.58642578125,0.52099609375,0.9375,2.3125,8.0
0,66,33,31,69,226,105,46,39,0.25067138671875,0.2744140625,-0.427734375,0.82391357421875,0.630859375,-0.615234375,0.5234375,-2.3125,0.9375,0.9375
0,71,36,30,71,227,104,45,40,0.25030517578125,0.2733154296875,-0.4283447265625,0.8240966796875,0.62451171875,-0.6455078125,0.51708984375,-2.25,0.625,0.1875
0,66,38,32,74,228,112,48,44,0.24951171875,0.2728271484375,-0.428466796875,0.82440185546875,0.58935546875,-0.62841796875,0.5234375,1.0,-3.5625,-0.125
0,54,38,29,62,211,95,50,45,0.24884033203125,0.27349853515625,-0.4278564453125,0.82470703125,0.62353515625,-0.603515625,0.529296875,4.9375,-7.125,-2.25
0,55,43,31,67,210,84,46,41,0.24847412109375,0.27490234375,-0.42742919921875,0.8245849609375,0.63720703125,-0.5986328125,0.5185546875,4.0625,-9.6875,-4.9375
0,55,43,29,68,184,91,44,37,0.248046875,0.27655029296875,-0.4268798828125,0.824462890625,0.6103515625,-0.5947265625,0.529296875,3.9375,-12.4375,-6.9375
0,51,42,31,69,200,81,44,36,0.24749755859375,0.2784423828125,-0.426025390625,0.82440185546875,0.58740234375,-0.5888671875,0.53759765625,6.4375,-14.6875,-8.0625
0,55,41,29,65,193,70,42,33,0.24652099609375,0.28118896484375,-0.4244384765625,0.8245849609375,0.5869140625,-0.52978515625,0.52294921875,10.625,-17.75,-6.0
0,58,40,32,69,154,93,41,33,0.24566650390625,0.2845458984375,-0.42230224609375,0.8248291015625,0.6103515625,-0.47705078125,0.52978515625,12.0,-19.25,-6.125
0,54,36,31,64,157,99,39,32,0.245361328125,0.28814697265625,-0.42083740234375,0.82440185546875,0.650390625,-0.44189453125,0.5029296875,6.875,-18.625,-6.1875
0,54,43,32,71,163,88,38,32,0.2452392578125,0.2913818359375,-0.4205322265625,0.82342529296875,0.67578125,-0.48681640625,0.4892578125,1.0625,-17.4375,-6.5625
0,53,44,29,70,145,86,35,30,0.24456787109375,0.29425048828125,-0.42132568359375,0.82220458984375,0.6796875,-0.52685546875,0.4453125,-1.4375,-17.6875,-3.3125
0,52,42,34,75,148,98,37,29,0.24298095703125,0.2974853515625,-0.421875,0.82122802734375,0.70654296875,-0.52197265625,0.4384765625,2.6875,-19.5,0.875
0,56,43,31,66,147,80,40,33,0.24163818359375,0.30023193359375,-0.42291259765625,0.820068359375,0.73486328125,-0.484375,0.4287109375,-2.625,-16.8125,4.4375
0,54,42,31,66,125,71,39,34,0.24102783203125,0.3023681640625,-0.42559814453125,0.818115234375,0.74658203125,-0.50732421875,0.39208984375,-12.375,-14.1875,3.5625
0,55,36,31,52,123,68,42,35,0.24005126953125,0.3043212890625,-0.42889404296875,0.81591796875,0.74560546875,-0.55419921875,0.35791015625,-13.0,-14.1875,4.25
0,57,33,31,49,116,72,42,37,0.238525390625,0.306396484375,-0.431396484375,0.81427001953125,0.759765625,-0.580078125,0.3642578125,-6.5625,-14.125,5.0
0,56,38,26,36,106,67,39,37,0.23681640625,0.3084716796875,-0.4326171875,0.8133544921875,0.78173828125,-0.5966796875,0.37890625,1.375,-12.3125,4.75
0,54,40,28,44,201,69,39,35,0.23468017578125,0.31011962890625,-0.43304443359375,0.8131103515625,0.79052734375,-0.5859375,0.3779296875,6.1875,-8.625,8.0625
0,54,41,29,49,221,77,39,35,0.2327880859375,0.311279296875,-0.43316650390625,0.81317138671875,0.7919921875,-0.56689453125,0.37939453125,6.5,-5.125,9.5
0,53,39,29,52,212,79,38,36,0.231201171875,0.311767578125,-0.4334716796875,0.813232421875,0.78515625,-0.57275390625,0.37353515625,4.9375,-1.5,9.0
0,54,39,29,55,222,75,39,33,0.2298583984375,0.31158447265625,-0.43353271484375,0.81365966796875,0.7587890625,-0.59423828125,0.3779296875,6.0625,2.4375,7.9375
0,54,34,30,61,285,88,38,35,0.2286376953125,0.31134033203125,-0.4329833984375,0.81439208984375,0.75244140625,-0.580078125,0.37646484375,8.5625,4.25,7.4375
0,57,32,30,57,232,86,33,33,0.22784423828125,0.310791015625,-0.43231201171875,0.815185546875,0.73974609375,-0.55029296875,0.38232421875,7.4375,6.25,7.0
0,60,32,27,55,221,80,36,31,0.22772216796875,0.30999755859375,-0.431640625,0.81591796875,0.728515625,-0.53857421875,0.3984375,4.875,8.125,4.375
0,58,32,26,56,239,82,38,31,0.22802734375,0.3089599609375,-0.43084716796875,0.81658935546875,0.72119140625,-0.5400390625,0.40869140625,3.625,10.0,2.5
0,57,31,28,56,243,108,40,34,0.228515625,0.307861328125,-0.4302978515625,0.81719970703125,0.71337890625,-0.5458984375,0.404296875,2.75,10.4375,1.75
0,52,31,25,52,216,97,39,34,0.2291259765625,0.30657958984375,-0.42950439453125,0.81793212890625,0.69580078125,-0.5380859375,0.4248046875,2.75,10.5,0.8125
0,48,28,26,61,224,97,43,33,0.22998046875,0.30511474609375,-0.428466796875,0.8187255859375,0.68798828125,-0.5517578125,0.44287109375,3.0625,11.625,-0.9375
0,45,26,29,57,218,111,40,32,0.23089599609375,0.30352783203125,-0.42755126953125,0.819580078125,0.68505859375,-0.55224609375,0.45166015625,2.5625,11.875,-0.8125
0,50,26,27,52,201,109,39,34,0.23187255859375,0.30194091796875,-0.42669677734375,0.8203125,0.689453125,-0.544921875,0.470703125,0.75,11.5,-0.75
0,49,25,26,49,233,85,37,30,0.2330322265625,0.3001708984375,-0.4261474609375,0.8209228515625,0.67431640625,-0.5498046875,0.46875,-1.125,11.5625,-1.5
0,48,29,29,48,191,73,37,30,0.23431396484375,0.2982177734375,-0.42572021484375,0.82147216796875,0.6689453125,-0.57177734375,0.48583984375,-2.3125,11.8125,-2.6875
0,43,31,27,43,178,90,30,31,0.2354736328125,0.29608154296875,-0.4254150390625,0.82208251953125,0.6611328125,-0.58251953125,0.494140625,-2.5625,11.8125,-1.9375
0,55,32,26,43,181,72,36,32,0.23590087890625,0.293701171875,-0.42486572265625,0.8231201171875,0.6181640625,-0.57177734375,0.5205078125,-0.625,10.0,1.0
0,57,31,29,52,213,72,35,30,0.23626708984375,0.29168701171875,-0.42413330078125,0.8240966796875,0.609375,-0.5380859375,0.52685546875,-0.5,8.0,1.625
0,61,34,29,52,157,69,36,35,0.23687744140625,0.29022216796875,-0.4234619140625,0.8248291015625,0.6259765625,-0.525390625,0.521484375,-1.1875,6.5,0.0625
0,62,33,28,47,156,88,38,32,0.23779296875,0.28912353515625,-0.423095703125,0.8250732421875,0.63623046875,-0.53271484375,0.50146484375,-2.8125,5.375,-2.3125
0,68,36,31,55,170,80,45,32,0.23883056640625,0.2886962890625,-0.42291259765625,0.82501220703125,0.66015625,-0.5361328125,0.478515625,-2.5,3.9375,-3.75
0,77,42,30,61,186,98,40,32,0.2398681640625,0.28857421875,-0.423095703125,0.82470703125,0.681640625,-0.5322265625,0.47216796875,-4.5,2.5625,-3.375
0,78,41,38,72,174,104,45,34,0.24090576171875,0.28851318359375,-0.42388916015625,0.82403564453125,0.69140625,-0.53955078125,0.4599609375,-7.125,1.6875,-2.75
0,78,41,37,78,220,129,42,36,0.24176025390625,0.2879638671875,-0.42474365234375,0.823486328125,0.7060546875,-0.5693359375,0.46826171875,-7.0,3.5625,-1.5
0,83,41,39,81,244,122,47,41,0.24212646484375,0.28765869140625,-0.426025390625,0.8228759765625,0.72119140625,-0.59033203125,0.4326171875,-6.25,2.8125,0.375
0,78,37,36,78,236,118,40,41,0.2421875,0.28704833984375,-0.4271240234375,0.82244873046875,0.7138671875,-0.60009765625,0.4384765625,-4.75,3.25,2.25
0,72,35,37,79,243,129,40,42,0.2421875,0.28631591796875,-0.42803955078125,0.822265625,0.69873046875,-0.58349609375,0.43798828125,-4.0625,4.1875,2.75
0,75,39,28,69,261,129,38,42,0.2425537109375,0.28558349609375,-0.42889404296875,0.82196044921875,0.7099609375,-0.5927734375,0.439453125,-4.4375,4.9375,1.125
0,74,37,29,64,223,107,41,36,0.2430419921875,0.284912109375,-0.4298095703125,0.821533203125,0.712890625,-0.5927734375,0.4365234375,-4.9375,5.25,0.4375
0,70,36,25,63,200,121,40,35,0.2437744140625,0.28399658203125,-0.4307861328125,0.8211669921875,0.69287109375,-0.5849609375,0.44384765625,-6.5625,5.8125,-0.3125
0,69,36,26,60,204,127,41,34,0.2447509765625,0.2828369140625,-0.43145751953125,0.82086181640625,0.6630859375,-0.59375,0.4521484375,-5.8125,6.5,-2.5625
0,59,34,26,53,187,104,39,35,0.245849609375,0.28173828125,-0.43157958984375,0.82086181640625,0.66259765625,-0.6015625,0.45751953125,-2.5,7.875,-4.0
0,51,32,25,47,137,96,36,33,0.2470703125,0.2808837890625,-0.43115234375,0.821044921875,0.67138671875,-0.59912109375,0.45947265625,0.6875,8.3125,-6.0
0,48,30,27,46,162,107,37,34,0.24847412109375,0.28021240234375,-0.43023681640625,0.8212890625,0.68017578125,-0.5927734375,0.45654296875,3.125,9.1875,-6.875
0,46,32,28,48,171,90,35,34,0.25006103515625,0.279296875,-0.42926025390625,0.8216552734375,0.65576171875,-0.58544921875,0.4765625,2.3125,9.75,-8.125
0,50,38,27,45,177,83,35,37,0.25164794921875,0.2781982421875,-0.42822265625,0.82208251953125,0.6396484375,-0.5927734375,0.49609375,2.0625,9.1875,-8.3125
0,45,35,28,46,168,81,34,35,0.25323486328125,0.2774658203125,-0.42681884765625,0.8226318359375,0.64453125,-0.5869140625,0.50439453125,4.125,8.125,-9.625
0,57,35,29,52,187,96,41,42,0.2550048828125,0.27703857421875,-0.42510986328125,0.82305908203125,0.642578125,-0.56396484375,0.50244140625,5.0625,7.5625,-10.6875
0,59,36,31,56,167,81,37,43,0.2569580078125,0.2769775390625,-0.423583984375,0.8232421875,0.6572265625,-0.5595703125,0.501953125,3.9375,6.3125,-12.0625
0,74,38,32,56,177,77,35,45,0.259033203125,0.2772216796875,-0.422119140625,0.82330322265625,0.6748046875,-0.56494140625,0.50048828125,4.1875,5.625,-13.5
0,75,35,32,67,196,84,39,42,0.26080322265625,0.2772216796875,-0.42022705078125,0.82373046875,0.63525390625,-0.54443359375,0.50390625,6.625,5.6875,-12.1875
0,87,42,34,71,203,84,42,43,0.2626953125,0.277099609375,-0.4176025390625,0.824462890625,0.61328125,-0.53173828125,0.52001953125,9.8125,6.8125,-13.4375
0,85,48,34,75,183,75,39,48,0.26483154296875,0.27728271484375,-0.41424560546875,0.825439453125,0.63623046875,-0.513671875,0.52880859375,12.875,8.3125,-14.9375
0,89,50,30,74,211,84,42,48,0.2672119140625,0.27728271484375,-0.4105224609375,0.8265380859375,0.66748046875,-0.48046875,0.53662109375,13.8125,11.125,-13.5625
0,86,48,34,96,202,84,42,49,0.26971435546875,0.27685546875,-0.40753173828125,0.82733154296875,0.66064453125,-0.4677734375,0.529296875,8.5625,12.6875,-12.25
0,86,51,32,95,168,75,38,48,0.27239990234375,0.27593994140625,-0.4052734375,0.827880859375,0.65087890625,-0.466796875,0.5224609375,4.25,13.5625,-11.75
0,74,45,30,93,168,73,37,56,0.2745361328125,0.2750244140625,-0.4034423828125,0.82830810546875,0.64208984375,-0.4736328125,0.52685546875,3.0,11.3125,-9.4375
0,71,41,30,90,172,66,35,46,0.27630615234375,0.27435302734375,-0.40155029296875,0.82891845703125,0.64208984375,-0.4736328125,0.53466796875,4.5625,9.5625,-8.0
0,66,40,34,99,171,106,39,44,0.27764892578125,0.273681640625,-0.39971923828125,0.82958984375,0.65673828125,-0.4658203125,0.54248046875,5.1875,8.8125,-5.375
0,65,42,30,79,156,110,43,43,0.27850341796875,0.2728271484375,-0.39849853515625,0.83013916015625,0.67529296875,-0.45458984375,0.54541015625,1.625,8.3125,-0.6875
0,67,44,32,72,157,108,50,53,0.2789306640625,0.27154541015625,-0.39825439453125,0.83056640625,0.66796875,-0.4658203125,0.546875,-2.6875,7.375,3.0625
0,72,53,34,77,147,108,51,46,0.27886962890625,0.26983642578125,-0.39886474609375,0.830810546875,0.64599609375,-0.4853515625,0.546875,-6.375,5.8125,6.0
0,104,70,48,132,278,119,81,118,0.2779541015625,0.26800537109375,-0.4000244140625,0.8311767578125,0.61669921875,-0.51171875,0.5615234375,-7.4375,2.0625,9.1875
0,108,79,51,137,296,80,83,123,0.2764892578125,0.26605224609375,-0.39990234375,0.83233642578125,0.60986328125,-0.49462890625,0.55078125,0.9375,5.3125,12.4375
0,114,95,55,138,300,77,95,126,0.27459716796875,0.26409912109375,-0.400634765625,0.833251953125,0.60107421875,-0.5146484375,0.56005859375,-2.5625,2.125,14.3125
0,126,99,57,152,300,82,96,127,0.27227783203125,0.2626953125,-0.40118408203125,0.83416748046875,0.56884765625,-0.5615234375,0.6025390625,-0.1875,-4.1875,11.5625
0,167,123,57,160,305,107,108,138,0.2694091796875,0.2620849609375,-0.40167236328125,0.8350830078125,0.615234375,-0.56982421875,0.55859375,3.625,-5.8125,14.0
0,206,132,55,184,252,107,107,111,0.26678466796875,0.26239013671875,-0.40203857421875,0.83563232421875,0.65087890625,-0.53564453125,0.5517578125,3.625,-7.9375,13.0
0,204,134,50,180,221,102,111,111,0.26470947265625,0.2625732421875,-0.4034423828125,0.8355712890625,0.6669921875,-0.54833984375,0.5048828125,-1.875,-6.0,11.25
0,207,133,50,183,232,114,105,111,0.26239013671875,0.2626953125,-0.40478515625,0.8355712890625,0.63916015625,-0.58203125,0.51513671875,-0.5,-7.4375,10.6875
0,216,139,49,173,242,112,101,113,0.25970458984375,0.26336669921875,-0.40545654296875,0.83587646484375,0.61669921875,-0.5810546875,0.544921875,3.5625,-12.0,9.3125
0,191,124,49,190,241,92,93,104,0.2572021484375,0.26507568359375,-0.40570068359375,0.83599853515625,0.64501953125,-0.54931640625,0.5361328125,5.375,-14.4375,8.0625
0,156,125,42,163,186,96,99,93,0.2554931640625,0.26641845703125,-0.40631103515625,0.8358154296875,0.6416015625,-0.5458984375,0.54052734375,1.0625,-12.75,5.3125
0,169,129,47,188,184,107,111,93,0.254150390625,0.267333984375,-0.4073486328125,0.83544921875,0.6259765625,-0.56591796875,0.5302734375,-2.0,-11.0,3.125
0,175,130,46,190,165,94,125,114,0.25244140625,0.26898193359375,-0.407958984375,0.83514404296875,0.63720703125,-0.58154296875,0.5244140625,2.3125,-14.0,2.5625
0,172,125,54,200,173,113,130,120,0.25048828125,0.27099609375,-0.40802001953125,0.83502197265625,0.63427734375,-0.58251953125,0.52099609375,6.9375,-15.5,1.9375
0,179,125,52,187,173,113,146,116,0.24853515625,0.27337646484375,-0.40777587890625,0.8349609375,0.64404296875,-0.5517578125,0.51171875,7.875,-16.125,2.25
0,162,115,54,165,231,102,134,107,0.2470703125,0.27557373046875,-0.40771484375,0.834716796875,0.64404296875,-0.54150390625,0.517578125,4.6875,-15.125,1.0
0,162,119,53,137,228,93,120,105,0.245849609375,0.27752685546875,-0.4078369140625,0.8343505859375,0.6240234375,-0.55517578125,0.521484375,3.375,-14.4375,-1.1875
0,144,110,51,134,229,105,102,88,0.24444580078125,0.2799072265625,-0.40765380859375,0.83404541015625,0.64404296875,-0.55029296875,0.5107421875,5.9375,-16.0,-0.625
0,138,108,43,127,250,90,127,94,0.24285888671875,0.28265380859375,-0.4073486328125,0.833740234375,0.6494140625,-0.54443359375,0.49658203125,7.6875,-16.875,-0.75
0,138,103,45,124,255,97,109,93,0.2415771484375,0.28521728515625,-0.40667724609375,0.83355712890625,0.66357421875,-0.53955078125,0.50537109375,8.1875,-14.9375,-1.625
0,148,94,45,121,220,118,107,92,0.2401123046875,0.28790283203125,-0.40618896484375,0.83331298828125,0.68505859375,-0.54736328125,0.5078125,8.3125,-15.6875,-0.1875
0,154,78,45,143,220,122,108,90,0.2381591796875,0.29071044921875,-0.40576171875,0.83306884765625,0.69580078125,-0.54541015625,0.4853515625,9.1875,-16.5625,1.875
0,160,83,48,154,218,112,116,84,0.236328125,0.29376220703125,-0.40533447265625,0.832763671875,0.72021484375,-0.52099609375,0.4619140625,9.3125,-15.625,2.75
0,160,85,48,160,188,145,86,59,0.23504638671875,0.29644775390625,-0.4052734375,0.83221435546875,0.7109375,-0.52783203125,0.45068359375,6.0625,-13.6875,0.1875
0,176,101,48,159,190,141,91,69,0.233642578125,0.2991943359375,-0.40496826171875,0.83172607421875,0.7099609375,-0.53271484375,0.4580078125,7.75,-14.1875,0.0625
0,212,144,45,162,162,121,90,80,0.23236083984375,0.30218505859375,-0.40423583984375,0.8314208984375,0.7333984375,-0.50732421875,0.4541015625,9.3125,-13.625,0.4375
0,251,152,45,136,150,125,99,91,0.231201171875,0.3048095703125,-0.403564453125,0.83111572265625,0.7314453125,-0.50537109375,0.44970703125,8.6875,-11.75,0.3125
0,265,148,45,117,161,127,94,92,0.230712890625,0.30731201171875,-0.40313720703125,0.83056640625,0.74169921875,-0.4921875,0.43994140625,5.4375,-9.4375,-1.25
0,270,151,43,96,146,82,91,93,0.23077392578125,0.309326171875,-0.40283203125,0.82989501953125,0.73388671875,-0.49267578125,0.44140625,2.875,-6.9375,-3.375
0,252,139,43,81,141,87,81,85,0.23114013671875,0.31121826171875,-0.4027099609375,0.82916259765625,0.7490234375,-0.49267578125,0.43115234375,1.375,-5.375,-4.4375
0,213,101,42,63,172,104,94,79,0.23187255859375,0.3128662109375,-0.402587890625,0.828369140625,0.73583984375,-0.49267578125,0.4365234375,0.3125,-4.125,-5.875
0,149,82,36,70,176,98,85,61,0.23284912109375,0.31451416015625,-0.4022216796875,0.82763671875,0.751953125,-0.47802734375,0.43212890625,0.6875,-2.75,-6.125
0,158,91,33,71,175,91,80,59,0.23406982421875,0.31573486328125,-0.40240478515625,0.8267822265625,0.7607421875,-0.48193359375,0.4296875,-3.0,-0.625,-6.0625
0,149,86,33,71,171,89,77,55,0.23553466796875,0.31622314453125,-0.4029541015625,0.82586669921875,0.744140625,-0.4873046875,0.4267578125,-6.0,2.125,-5.5
0,164,84,31,69,164,104,77,55,0.2371826171875,0.31646728515625,-0.4034423828125,0.8250732421875,0.75830078125,-0.5048828125,0.42626953125,-5.25,4.3125,-6.5625
0,164,72,40,85,166,90,61,46,0.23907470703125,0.31646728515625,-0.40362548828125,0.824462890625,0.77197265625,-0.50390625,0.42822265625,-4.625,7.0,-7.0
0,176,75,41,94,164,146,57,52,0.24163818359375,0.31610107421875,-0.4041748046875,0.82354736328125,0.7841796875,-0.49658203125,0.40869140625,-7.9375,10.8125,-8.125
0,169,66,41,95,158,149,66,52,0.24468994140625,0.31500244140625,-0.40521240234375,0.82257080078125,0.79345703125,-0.50927734375,0.390625,-11.3125,16.0,-8.4375
0,159,54,42,105,227,154,67,52,0.248291015625,0.31280517578125,-0.40625,0.82183837890625,0.78271484375,-0.52685546875,0.3916015625,-13.0625,22.1875,-9.375
0,144,53,43,104,231,141,66,52,0.2525634765625,0.31005859375,-0.40679931640625,0.8212890625,0.76318359375,-0.52880859375,0.40771484375,-12.125,26.125,-12.6875
0,139,55,33,85,207,144,57,50,0.25714111328125,0.306640625,-0.40704345703125,0.821044921875,0.73046875,-0.5224609375,0.42919921875,-12.625,29.0,-13.3125
0,125,55,31,66,217,99,58,45,0.26190185546875,0.30279541015625,-0.40679931640625,0.82110595703125,0.7080078125,-0.51220703125,0.44970703125,-11.4375,31.25,-14.1875
0,82,56,33,92,265,101,55,47,0.2669677734375,0.298583984375,-0.40594482421875,0.8214111328125,0.6826171875,-0.50146484375,0.48193359375,-10.3125,33.1875,-15.75
0,77,55,31,90,207,112,53,47,0.272216796875,0.29437255859375,-0.4049072265625,0.82171630859375,0.6796875,-0.4931640625,0.51025390625,-10.75,32.6875,-16.4375
0,97,56,29,100,201,111,55,53,0.27764892578125,0.29022216796875,-0.40374755859375,0.82196044921875,0.66357421875,-0.47900390625,0.52734375,-11.25,31.6875,-17.5
0,112,57,32,106,244,149,56,55,0.282958984375,0.2862548828125,-0.402587890625,0.82208251953125,0.66064453125,-0.4794921875,0.53271484375,-10.9375,30.6875,-17.8125
0,112,55,35,110,242,143,70,57,0.28802490234375,0.28240966796875,-0.40167236328125,0.8221435546875,0.646484375,-0.48291015625,0.53564453125,-11.25,28.8125,-17.5625
0,107,47,33,90,199,139,65,47,0.29278564453125,0.2786865234375,-0.4007568359375,0.8221435546875,0.634765625,-0.47607421875,0.5341796875,-10.75,27.125,-16.25
0,113,51,35,83,205,126,66,51,0.29766845703125,0.275146484375,-0.39996337890625,0.82196044921875,0.64990234375,-0.478515625,0.54541015625,-11.625,26.5,-17.25
0,92,47,39,86,255,136,63,43,0.30242919921875,0.27178955078125,-0.39959716796875,0.821533203125,0.6904296875,-0.505859375,0.55126953125,-12.8125,25.8125,-16.5625
0,94,45,36,85,219,91,67,45,0.30682373046875,0.2679443359375,-0.4000244140625,0.82098388671875,0.68212890625,-0.51708984375,0.54150390625,-16.0625,26.1875,-13.5
0,85,46,34,78,206,96,51,40,0.310791015625,0.26385498046875,-0.40087890625,0.82037353515625,0.66845703125,-0.5224609375,0.53955078125,-17.5,25.3125,-10.875
0,108,51,34,79,196,94,51,48,0.31451416015625,0.25970458984375,-0.40155029296875,0.8199462890625,0.63330078125,-0.525390625,0.56298828125,-16.8125,23.5,-11.0
0,116,58,34,87,212,91,66,46,0.3179931640625,0.255859375,-0.40179443359375,0.8197021484375,0.6201171875,-0.52880859375,0.56982421875,-13.375,22.125,-11.0
0,124,62,33,82,162,100,64,48,0.32135009765625,0.25213623046875,-0.4013671875,0.81976318359375,0.5947265625,-0.50732421875,0.5927734375,-10.8125,21.125,-11.0625
0,120,63,36,89,164,93,74,60,0.32470703125,0.2486572265625,-0.40069580078125,0.81982421875,0.5771484375,-0.5029296875,0.58935546875,-8.875,19.9375,-12.0625
0,139,78,44,125,183,84,81,80,0.32794189453125,0.245849609375,-0.399658203125,0.81988525390625,0.57666015625,-0.490234375,0.60205078125,-6.8125,17.125,-13.0625
0,198,87,50,166,226,92,95,102,0.33123779296875,0.24322509765625,-0.39849853515625,0.8199462890625,0.59326171875,-0.4892578125,0.60400390625,-5.25,17.4375,-13.1875
0,206,101,52,208,217,106,113,106,0.334228515625,0.24053955078125,-0.39715576171875,0.82012939453125,0.6064453125,-0.4921875,0.59228515625,-3.4375,19.125,-11.5
0,226,153,57,221,224,90,124,124,0.33685302734375,0.2376708984375,-0.39605712890625,0.8204345703125,0.60986328125,-0.50244140625,0.60302734375,-3.75,18.5625,-8.6875
0,229,166,59,228,265,89,120,125,0.33892822265625,0.23516845703125,-0.3951416015625,0.82073974609375,0.611328125,-0.5263671875,0.61083984375,-2.375,15.3125,-7.875
0,217,160,53,220,259,110,117,114,0.33984375,0.23309326171875,-0.39404296875,0.82147216796875,0.587890625,-0.53125,0.6064453125,2.25,11.3125,-3.9375
0,173,165,50,228,244,111,113,97,0.34051513671875,0.23162841796875,-0.39324951171875,0.822021484375,0.61279296875,-0.50439453125,0.59375,1.4375,8.6875,-1.75
0,180,168,52,211,245,103,91,100,0.3416748046875,0.23004150390625,-0.39312744140625,0.822021484375,0.59375,-0.49853515625,0.595703125,-4.1875,7.5625,-4.5
0,178,146,45,199,253,113,81,79,0.3427734375,0.228759765625,-0.39312744140625,0.8218994140625,0.5849609375,-0.51953125,0.61376953125,-4.125,4.5,-5.9375
0,181,143,41,186,245,123,102,70,0.34326171875,0.228271484375,-0.3927001953125,0.82208251953125,0.57958984375,-0.51611328125,0.623046875,0.75,-0.0625,-4.75
0,184,147,46,186,263,121,104,72,0.3433837890625,0.228515625,-0.3919677734375,0.82232666015625,0.59228515625,-0.4873046875,0.62353515625,3.0,-2.75,-3.5
0,168,139,42,141,242,117,99,64,0.34332275390625,0.22894287109375,-0.39141845703125,0.82244873046875,0.58349609375,-0.47607421875,0.62109375,2.25,-5.125,-2.875
0,154,130,38,115,247,120,120,51,0.343017578125,0.2296142578125,-0.39117431640625,0.822509765625,0.6015625,-0.48486328125,0.61767578125,2.0625,-6.5625,-1.5625
0,129,116,41,115,229,131,122,55,0.34234619140625,0.23052978515625,-0.39080810546875,0.82269287109375,0.6123046875,-0.4873046875,0.60302734375,4.25,-6.9375,-0.5
0,132,105,49,156,187,123,123,50,0.3414306640625,0.23150634765625,-0.39056396484375,0.82293701171875,0.6142578125,-0.4794921875,0.5986328125,3.9375,-7.6875,1.3125
0,145,103,48,147,153,109,131,60,0.3402099609375,0.2325439453125,-0.39013671875,0.8233642578125,0.609375,-0.4677734375,0.59912109375,5.625,-8.4375,3.1875
0,154,101,49,145,157,111,132,63,0.33892822265625,0.2335205078125,-0.38995361328125,0.82366943359375,0.623046875,-0.4736328125,0.58984375,4.8125,-8.125,3.875
0,155,98,48,144,155,103,116,62,0.33709716796875,0.23443603515625,-0.38983154296875,0.82421875,0.61572265625,-0.484375,0.58984375,5.6875,-9.0625,6.375
0,162,106,51,143,207,86,109,58,0.33447265625,0.23553466796875,-0.38958740234375,0.82513427734375,0.62353515625,-0.48681640625,0.5859375,8.875,-10.4375,10.25
0,151,101,47,129,238,86,83,69,0.3316650390625,0.236572265625,-0.38916015625,0.826171875,0.62451171875,-0.47216796875,0.58984375,9.1875,-9.9375,12.1875
0,152,101,44,136,237,96,84,64,0.328857421875,0.237548828125,-0.3890380859375,0.8270263671875,0.62939453125,-0.47021484375,0.58544921875,7.5625,-10.5625,12.625
0,147,96,46,144,257,96,89,61,0.32574462890625,0.2384033203125,-0.38934326171875,0.827880859375,0.6201171875,-0.48193359375,0.583984375,5.8125,-11.75,14.4375
0,136,90,46,139,257,99,81,64,0.322265625,0.239501953125,-0.38970947265625,0.82879638671875,0.6181640625,-0.4833984375,0.59130859375,6.375,-14.125,15.5625
0,146,67,45,142,217,91,82,66,0.3187255859375,0.24072265625,-0.39019775390625,0.82952880859375,0.6357421875,-0.49560546875,0.59228515625,5.875,-14.625,15.5
0,143,69,40,120,180,90,87,54,0.31536865234375,0.24169921875,-0.3909912109375,0.8302001953125,0.64794921875,-0.50048828125,0.5791015625,4.1875,-12.75,15.9375
0,162,63,40,110,224,87,81,56,0.31219482421875,0.241943359375,-0.39202880859375,0.830810546875,0.634765625,-0.52392578125,0.57421875,2.25,-9.9375,15.6875
0,158,61,38,100,201,92,78,59,0.309326171875,0.2418212890625,-0.39300537109375,0.83148193359375,0.62353515625,-0.53466796875,0.57177734375,1.9375,-7.5,14.25
0,156,63,37,96,183,89,80,58,0.3065185546875,0.24169921875,-0.39373779296875,0.83221435546875,0.62744140625,-0.55517578125,0.5673828125,3.9375,-6.375,13.0
0,148,69,34,94,178,82,86,59,0.30364990234375,0.2420654296875,-0.39361572265625,0.83319091796875,0.6142578125,-0.5556640625,0.55615234375,9.75,-7.0625,11.1875
0,151,71,34,90,194,91,83,60,0.301025390625,0.24322509765625,-0.3927001953125,0.834228515625,0.62890625,-0.53857421875,0.5634765625,13.875,-8.5625,8.9375
0,133,76,32,91,137,81,79,58,0.29864501953125,0.24468994140625,-0.3916015625,0.835205078125,0.62890625,-0.52294921875,0.56298828125,14.0,-9.125,7.0625
0,151,78,32,87,155,90,73,56,0.29669189453125,0.24627685546875,-0.39056396484375,0.8359375,0.642578125,-0.50927734375,0.56787109375,12.5625,-9.0625,5.3125
0,152,76,33,96,162,94,81,55,0.29461669921875,0.24786376953125,-0.3896484375,0.8365478515625,0.6298828125,-0.51513671875,0.564453125,12.0625,-9.9375,5.0
0,133,62,33,102,193,98,75,51,0.29254150390625,0.249755859375,-0.388427734375,0.83734130859375,0.63671875,-0.50927734375,0.5693359375,14.0,-10.75,4.75
0,139,55,33,107,203,110,79,51,0.2904052734375,0.25201416015625,-0.386962890625,0.83807373046875,0.6474609375,-0.48681640625,0.5625,15.125,-11.5625,5.0625
0,124,48,36,101,208,107,72,44,0.28839111328125,0.25433349609375,-0.3856201171875,0.83868408203125,0.658203125,-0.48291015625,0.5517578125,14.375,-11.1875,4.6875
0,99,42,35,101,192,94,70,40,0.2864990234375,0.25665283203125,-0.384521484375,0.839111328125,0.673828125,-0.46728515625,0.54541015625,12.75,-10.8125,5.5
0,92,39,36,94,246,110,61,35,0.28472900390625,0.2589111328125,-0.3837890625,0.83935546875,0.6923828125,-0.47412109375,0.5341796875,10.625,-9.9375,5.1875
0,90,35,36,79,219,113,61,30,0.283203125,0.260986328125,-0.3831787109375,0.83953857421875,0.69482421875,-0.46484375,0.52783203125,9.0625,-8.625,5.0
0,64,32,34,66,193,113,53,29,0.2816162109375,0.26287841796875,-0.3828125,0.839599609375,0.70263671875,-0.462890625,0.51611328125,7.9375,-7.625,6.0
0,51,28,32,74,246,164,51,28,0.280517578125,0.2645263671875,-0.38250732421875,0.83966064453125,0.6953125,-0.44775390625,0.51611328125,5.875,-6.0625,4.8125
0,42,26,32,77,251,170,47,27,0.27996826171875,0.26593017578125,-0.38238525390625,0.83941650390625,0.7109375,-0.44580078125,0.51513671875,3.0,-3.875,2.8125
0,40,26,29,73,203,158,58,26,0.27978515625,0.26715087890625,-0.3828125,0.83892822265625,0.72314453125,-0.4599609375,0.5146484375,-0.625,-2.8125,1.625
0,33,25,27,72,236,164,84,28,0.2796630859375,0.268310546875,-0.38323974609375,0.83837890625,0.71826171875,-0.46875,0.5146484375,-0.625,-3.0625,0.9375
0,32,26,32,74,240,167,86,27,0.27947998046875,0.26959228515625,-0.3836669921875,0.83782958984375,0.7119140625,-0.4755859375,0.5126953125,0.0625,-4.3125,0.125
0,29,26,32,69,181,185,104,27,0.27935791015625,0.2708740234375,-0.38409423828125,0.83721923828125,0.70849609375,-0.4755859375,0.52001953125,-0.5,-4.625,-0.5625
0,29,26,32,69,182,197,118,27,0.27972412109375,0.27215576171875,-0.384521484375,0.8365478515625,0.70556640625,-0.46142578125,0.51904296875,-1.9375,-3.9375,-2.5
0,59,30,36,86,195,205,121,41,0.28057861328125,0.27362060546875,-0.3846435546875,0.835693359375,0.69091796875,-0.4677734375,0.54248046875,-1.875,-5.4375,-6.75
0,76,44,46,102,161,203,140,67,0.28143310546875,0.27490234375,-0.3839111328125,0.8353271484375,0.69482421875,-0.48974609375,0.5693359375,2.8125,-3.75,-8.1875
0,150,124,66,158,203,199,217,139,0.2822265625,0.27618408203125,-0.38299560546875,0.8350830078125,0.734375,-0.4599609375,0.509765625,5.1875,1.125,-5.3125
0,188,163,84,212,219,148,273,210,0.28411865234375,0.27740478515625,-0.382568359375,0.83416748046875,0.73974609375,-0.42724609375,0.4619140625,0.1875,4.0625,-9.3125
0,234,198,93,264,216,128,274,218,0.28680419921875,0.27813720703125,-0.38299560546875,0.8328857421875,0.69384765625,-0.4306640625,0.51953125,-8.875,1.75,-13.25
0,252,207,95,267,202,112,274,230,0.28955078125,0.2789306640625,-0.383544921875,0.83135986328125,0.67431640625,-0.5341796875,0.5439453125,-6.375,-1.5,-19.5625
0,248,208,93,282,217,108,266,225,0.29254150390625,0.2803955078125,-0.38336181640625,0.82989501953125,0.70654296875,-0.50634765625,0.533203125,-3.0625,-1.1875,-21.1875
0,233,179,80,262,197,117,218,193,0.2958984375,0.282470703125,-0.38299560546875,0.82818603515625,0.71923828125,-0.44091796875,0.4814453125,-2.6875,-0.375,-21.9375
0,211,150,62,242,197,114,135,119,0.30072021484375,0.2833251953125,-0.38360595703125,0.82586669921875,0.7255859375,-0.443359375,0.5166015625,-14.25,4.0,-25.875
0,174,119,52,192,243,138,145,116,0.30572509765625,0.28350830078125,-0.38427734375,0.82366943359375,0.7119140625,-0.455078125,0.5126953125,-15.0,7.3125,-26.4375
0,156,110,52,192,244,148,158,105,0.3111572265625,0.28350830078125,-0.38446044921875,0.821533203125,0.7275390625,-0.4248046875,0.5244140625,-15.0625,10.0,-26.9375
0,163,108,56,168,242,144,159,140,0.3173828125,0.2830810546875,-0.38525390625,0.8189697265625,0.7216796875,-0.4052734375,0.51806640625,-21.4375,11.875,-28.625
0,154,101,59,171,262,159,151,139,0.32366943359375,0.28204345703125,-0.3865966796875,0.81622314453125,0.73486328125,-0.4267578125,0.515625,-24.3125,13.9375,-28.3125
0,154,95,59,149,266,158,154,151,0.3299560546875,0.28082275390625,-0.387939453125,0.8134765625,0.73974609375,-0.43505859375,0.49609375,-23.9375,16.1875,-28.5
0,157,72,55,137,231,147,145,148,0.33660888671875,0.27923583984375,-0.3892822265625,0.8106689453125,0.74560546875,-0.4296875,0.5068359375,-25.5625,17.875,-28.8125
0,153,70,51,127,263,151,129,140,0.3431396484375,0.2779541015625,-0.390625,0.80767822265625,0.7529296875,-0.43994140625,0.4970703125,-24.625,16.75,-30.1875
0,153,69,42,116,255,154,114,105,0.35003662109375,0.27655029296875,-0.392333984375,0.80438232421875,0.76025390625,-0.44287109375,0.50439453125,-27.75,16.4375,-31.3125
0,131,67,37,107,236,119,106,107,0.35675048828125,0.2750244140625,-0.394287109375,0.80096435546875,0.75537109375,-0.44775390625,0.49951171875,-28.9375,15.875,-31.0625
0,125,70,37,96,264,132,111,87,0.36383056640625,0.2733154296875,-0.3963623046875,0.79736328125,0.74609375,-0.43359375,0.49853515625,-30.9375,16.625,-32.0
0,125,76,36,94,254,120,105,94,0.371337890625,0.27093505859375,-0.39874267578125,0.79351806640625,0.74169921875,-0.44873046875,0.5068359375,-34.875,19.0,-33.6875
0,132,75,41,93,228,106,101,87,0.3787841796875,0.2681884765625,-0.4012451171875,0.7896728515625,0.72119140625,-0.45947265625,0.4990234375,-35.6875,19.9375,-33.625
0,127,74,40,94,224,109,97,83,0.38653564453125,0.2652587890625,-0.4031982421875,0.785888671875,0.7314453125,-0.4599609375,0.5048828125,-33.8125,22.5,-35.0625
0,129,70,40,102,203,116,100,79,0.3946533203125,0.26177978515625,-0.4051513671875,0.78204345703125,0.72900390625,-0.45458984375,0.48974609375,-35.25,26.4375,-35.4375
0,129,65,38,113,142,102,103,72,0.403076171875,0.25799560546875,-0.40667724609375,0.77813720703125,0.73046875,-0.4580078125,0.50634765625,-34.875,28.5,-37.1875
0,111,65,38,130,142,116,96,57,0.41192626953125,0.2530517578125,-0.40850830078125,0.774169921875,0.734375,-0.5048828125,0.5029296875,-38.0,34.6875,-38.625
0,82,55,30,126,119,125,95,54,0.421142578125,0.24774169921875,-0.409912109375,0.77020263671875,0.7060546875,-0.486328125,0.5166015625,-38.375,36.5625,-39.5625
0,98,58,35,130,134,128,98,71,0.4306640625,0.2425537109375,-0.41033935546875,0.766357421875,0.6884765625,-0.48291015625,0.5439453125,-34.6875,37.125,-42.75
0,112,66,40,140,165,122,140,122,0.4405517578125,0.2371826171875,-0.4105224609375,0.76226806640625,0.70263671875,-0.4931640625,0.54248046875,-34.25,40.5,-45.3125
0,138,98,50,212,265,122,166,138,0.45013427734375,0.2314453125,-0.4110107421875,0.7581787109375,0.6611328125,-0.49609375,0.5498046875,-36.0,38.5,-43.875
0,223,119,92,231,288,133,282,333,0.459716796875,0.22601318359375,-0.40985107421875,0.75469970703125,0.6376953125,-0.4765625,0.55908203125,-27.3125,41.3125,-45.125
0,279,164,98,234,295,129,357,387,0.46978759765625,0.220458984375,-0.4083251953125,0.75091552734375,0.64892578125,-0.46826171875,0.55224609375,-27.25,44.875,-47.25
0,290,176,98,236,297,122,379,394,0.48065185546875,0.2144775390625,-0.40716552734375,0.74639892578125,0.61474609375,-0.482421875,0.61572265625,-33.3125,42.5,-53.1875
0,311,184,98,226,299,123,374,387,0.4913330078125,0.209716796875,-0.40576171875,0.7415771484375,0.59814453125,-0.4619140625,0.6435546875,-30.625,35.5,-55.875
0,311,194,100,170,234,119,359,387,0.501708984375,0.205322265625,-0.40576171875,0.73583984375,0.6650390625,-0.4365234375,0.626953125,-37.4375,32.1875,-53.5
0,259,185,66,142,218,101,290,254,0.51123046875,0.20062255859375,-0.4061279296875,0.7303466796875,0.64013671875,-0.46875,0.6318359375,-37.0,29.4375,-50.5
0,207,149,59,137,223,111,211,167,0.5198974609375,0.19671630859375,-0.40606689453125,0.72528076171875,0.61083984375,-0.4638671875,0.64111328125,-31.0625,24.125,-48.875
0,186,132,64,157,232,119,169,144,0.5274658203125,0.19488525390625,-0.40521240234375,0.7208251953125,0.599609375,-0.4423828125,0.63818359375,-19.4375,16.125,-47.4375
0,142,121,66,182,245,134,152,129,0.53424072265625,0.19451904296875,-0.404296875,0.7164306640625,0.6318359375,-0.3984375,0.62109375,-14.8125,10.4375,-44.625
0,140,82,56,167,224,131,161,116,0.5406494140625,0.19384765625,-0.4039306640625,0.71197509765625,0.634765625,-0.38330078125,0.61767578125,-17.5625,9.375,-41.8125
0,134,70,57,167,248,122,186,103,0.5469970703125,0.19305419921875,-0.403564453125,0.70751953125,0.62646484375,-0.361328125,0.62060546875,-19.125,9.375,-40.75
0,122,73,57,176,270,128,167,95,0.552978515625,0.1917724609375,-0.403564453125,0.70318603515625,0.6279296875,-0.3740234375,0.6357421875,-20.6875,8.9375,-37.8125
0,118,69,46,153,262,135,180,91,0.558349609375,0.19024658203125,-0.4034423828125,0.699462890625,0.64306640625,-0.38525390625,0.63525390625,-18.25,9.8125,-33.375
0,114,62,38,115,242,118,180,87,0.56298828125,0.1888427734375,-0.40277099609375,0.696533203125,0.6474609375,-0.3740234375,0.64599609375,-13.625,10.0625,-28.6875
0,83,59,38,123,262,135,171,86,0.5672607421875,0.187744140625,-0.4014892578125,0.694091796875,0.63037109375,-0.36328125,0.65380859375,-9.3125,9.625,-26.6875
0,146,59,36,116,254,139,128,92,0.57110595703125,0.186767578125,-0.400146484375,0.69195556640625,0.63232421875,-0.35107421875,0.650390625,-7.375,9.25,-24.0625
0,149,51,35,100,235,116,131,94,0.57470703125,0.1854248046875,-0.39898681640625,0.69000244140625,0.640625,-0.34033203125,0.63623046875,-8.75,10.8125,-20.8125
0,150,49,39,93,227,103,120,94,0.5780029296875,0.1837158203125,-0.39794921875,0.68829345703125,0.6220703125,-0.349609375,0.6611328125,-9.4375,9.5,-18.5625
0,148,46,39,91,228,119,122,92,0.580810546875,0.182373046875,-0.39703369140625,0.68682861328125,0.63720703125,-0.353515625,0.64697265625,-7.125,8.5625,-16.625
0,145,36,40,75,202,109,118,87,0.58319091796875,0.1812744140625,-0.39605712890625,0.68560791015625,0.65087890625,-0.34326171875,0.64404296875,-5.0625,7.875,-14.0
0,82,30,34,56,191,114,106,53,0.585205078125,0.18023681640625,-0.39520263671875,0.6846923828125,0.65087890625,-0.3388671875,0.634765625,-4.375,7.25,-11.125
0,74,30,34,50,188,115,95,49,0.5867919921875,0.17926025390625,-0.3946533203125,0.68389892578125,0.6591796875,-0.3408203125,0.63330078125,-4.0625,5.9375,-9.125
0,61,31,30,45,181,110,78,46,0.5885009765625,0.17864990234375,-0.39385986328125,0.68304443359375,0.65185546875,-0.3544921875,0.63427734375,0.5625,-0.8125,-5.5
0,53,31,32,57,183,123,73,46,0.58856201171875,0.17877197265625,-0.3934326171875,0.6832275390625,0.666015625,-0.33837890625,0.6337890625,2.5625,-0.8125,-1.8125
0,50,31,31,56,207,125,90,43,0.5885009765625,0.1783447265625,-0.3931884765625,0.6834716796875,0.666015625,-0.32080078125,0.62939453125,-0.1875,0.5625,1.3125
0,35,30,32,57,193,113,77,40,0.5882568359375,0.17755126953125,-0.39312744140625,0.6839599609375,0.6572265625,-0.33349609375,0.63916015625,-1.375,0.5625,2.875
0,33,30,32,62,172,117,75,35,0.587890625,0.17669677734375,-0.39306640625,0.6845703125,0.66357421875,-0.33740234375,0.64208984375,-0.875,0.9375,4.1875
0,49,32,33,65,206,123,87,39,0.5870361328125,0.1756591796875,-0.3929443359375,0.68560791015625,0.6494140625,-0.34619140625,0.646484375,0.375,0.1875,7.125
0,53,36,30,54,188,106,82,37,0.585693359375,0.1751708984375,-0.39276123046875,0.68701171875,0.64501953125,-0.3583984375,0.6416015625,4.625,-2.125,8.4375
0,55,38,28,59,212,125,71,38,0.58392333984375,0.1751708984375,-0.3922119140625,0.68878173828125,0.650390625,-0.3505859375,0.646484375,7.9375,-3.4375,10.4375
0,58,37,30,73,239,135,71,32,0.58209228515625,0.175048828125,-0.39178466796875,0.69061279296875,0.65380859375,-0.34765625,0.654296875,7.125,-3.3125,11.5625
0,59,37,30,86,279,154,73,33,0.58013916015625,0.1746826171875,-0.3916015625,0.6925048828125,0.6484375,-0.361328125,0.6513671875,6.0,-3.6875,12.5625
0,57,34,28,90,288,152,70,28,0.57769775390625,0.1744384765625,-0.3916015625,0.694580078125,0.64306640625,-0.37548828125,0.64697265625,7.4375,-5.25,14.0625
0,55,29,29,90,291,150,79,32,0.57501220703125,0.17449951171875,-0.3914794921875,0.69683837890625,0.64892578125,-0.37841796875,0.6513671875,9.5625,-6.6875,15.25
0,56,24,30,85,272,127,71,31,0.5718994140625,0.17486572265625,-0.391357421875,0.6993408203125,0.6455078125,-0.3798828125,0.640625,11.6875,-8.0,16.9375
0,56,23,31,77,258,141,88,31,0.568603515625,0.175537109375,-0.39117431640625,0.7020263671875,0.64501953125,-0.37939453125,0.6416015625,13.3125,-9.4375,17.75
0,55,23,29,58,215,121,89,32,0.5650634765625,0.176513671875,-0.39093017578125,0.70477294921875,0.64501953125,-0.37890625,0.6416015625,14.5,-10.875,18.375
0,74,29,28,51,179,119,89,33,0.56121826171875,0.17779541015625,-0.39080810546875,0.70751953125,0.65087890625,-0.38525390625,0.63720703125,16.0625,-12.5625,18.875
0,85,36,29,54,191,108,83,35,0.55706787109375,0.179443359375,-0.390625,0.71051025390625,0.65185546875,-0.3857421875,0.6259765625,18.5,-13.9375,19.9375
0,88,41,27,56,166,126,96,35,0.552734375,0.18157958984375,-0.39013671875,0.713623046875,0.662109375,-0.3759765625,0.626953125,21.125,-14.6875,20.9375
0,91,43,26,63,146,101,80,37,0.5482177734375,0.18353271484375,-0.3897705078125,0.716796875,0.662109375,-0.3681640625,0.62158203125,20.1875,-14.5625,22.125
0,96,45,27,65,158,97,81,40,0.5435791015625,0.18548583984375,-0.38946533203125,0.719970703125,0.6689453125,-0.37744140625,0.619140625,20.0625,-14.625,23.0
0,94,43,29,63,143,95,71,40,0.5386962890625,0.1875,-0.38916015625,0.7232666015625,0.66748046875,-0.3828125,0.61328125,21.5,-15.1875,23.9375
0,90,43,31,60,113,93,68,39,0.53350830078125,0.189697265625,-0.38873291015625,0.72674560546875,0.67333984375,-0.38818359375,0.61181640625,23.4375,-15.875,25.25
0,96,41,34,64,115,60,44,39,0.52813720703125,0.192138671875,-0.38818359375,0.7303466796875,0.677734375,-0.37841796875,0.61181640625,24.375,-16.5,26.3125
0,96,44,32,54,119,59,56,37,0.52264404296875,0.19482421875,-0.3875732421875,0.73388671875,0.68896484375,-0.3740234375,0.60595703125,25.5625,-16.875,26.375
0,94,45,30,49,124,57,55,37,0.51715087890625,0.197998046875,-0.38690185546875,0.7373046875,0.69873046875,-0.365234375,0.59228515625,26.75,-18.0,25.8125
0,77,45,33,68,145,65,61,38,0.51165771484375,0.20111083984375,-0.3863525390625,0.74053955078125,0.71630859375,-0.361328125,0.587890625,25.4375,-17.5,26.125
0,76,41,31,67,148,89,67,36,0.50616455078125,0.20416259765625,-0.3858642578125,0.74371337890625,0.712890625,-0.3525390625,0.58154296875,24.4375,-17.375,26.5625
0,69,42,32,68,186,106,87,38,0.50048828125,0.2071533203125,-0.3856201171875,0.74688720703125,0.70947265625,-0.36328125,0.57373046875,24.125,-18.125,27.0
0,67,37,35,69,192,104,84,41,0.49462890625,0.2103271484375,-0.38531494140625,0.75006103515625,0.7119140625,-0.36572265625,0.5703125,25.3125,-19.25,27.5625
0,67,34,38,78,196,123,88,37,0.4888916015625,0.2137451171875,-0.38470458984375,0.753173828125,0.7294921875,-0.35791015625,0.578125,26.4375,-18.75,26.625
0,72,35,37,68,183,125,85,36,0.4833984375,0.21722412109375,-0.3841552734375,0.7559814453125,0.7421875,-0.33837890625,0.56201171875,24.875,-17.9375,25.9375
0,71,35,37,77,207,124,87,38,0.4781494140625,0.22039794921875,-0.3839111328125,0.758544921875,0.73388671875,-0.3427734375,0.55908203125,21.9375,-17.875,24.75
0,67,35,36,78,183,108,69,38,0.472900390625,0.22332763671875,-0.3837890625,0.76104736328125,0.73388671875,-0.35546875,0.55810546875,21.0625,-17.25,24.875
0,66,37,34,76,177,124,61,37,0.467529296875,0.22625732421875,-0.38348388671875,0.76361083984375,0.7255859375,-0.36083984375,0.5537109375,22.5,-16.875,24.5625
0,70,36,34,80,175,108,62,35,0.46234130859375,0.22918701171875,-0.3829345703125,0.76617431640625,0.728515625,-0.36279296875,0.5673828125,22.875,-16.9375,23.75
0,67,36,33,80,175,109,61,34,0.4571533203125,0.23199462890625,-0.3824462890625,0.7686767578125,0.7197265625,-0.369140625,0.56640625,22.3125,-16.8125,23.375
0,61,38,31,72,147,97,54,35,0.4520263671875,0.2344970703125,-0.3817138671875,0.77130126953125,0.70703125,-0.369140625,0.57861328125,22.375,-15.875,23.25
0,60,37,29,70,175,115,51,35,0.4471435546875,0.2366943359375,-0.3809814453125,0.7738037109375,0.71142578125,-0.375,0.57666015625,21.5625,-14.0,22.6875
0,62,34,28,76,186,103,53,34,0.44244384765625,0.2386474609375,-0.38018798828125,0.7763671875,0.7080078125,-0.37841796875,0.58447265625,20.8125,-12.75,22.125
0,55,35,29,74,176,105,41,34,0.4378662109375,0.2403564453125,-0.37921142578125,0.77886962890625,0.6962890625,-0.38916015625,0.5947265625,20.6875,-12.4375,20.9375
0,51,44,27,75,192,103,41,36,0.43328857421875,0.24224853515625,-0.378173828125,0.78131103515625,0.701171875,-0.38720703125,0.58154296875,21.5625,-11.75,20.375
0,59,44,28,83,226,112,39,33,0.42889404296875,0.244384765625,-0.37713623046875,0.7835693359375,0.71142578125,-0.380859375,0.58203125,21.5,-12.3125,19.375
0,59,43,27,79,200,94,37,34,0.424560546875,0.2467041015625,-0.37615966796875,0.78570556640625,0.708984375,-0.38134765625,0.576171875,21.125,-13.6875,18.375
0,64,44,27,77,194,95,35,36,0.4202880859375,0.2493896484375,-0.37518310546875,0.78759765625,0.7041015625,-0.37158203125,0.57177734375,21.25,-15.0625,17.125
0,76,55,28,65,193,101,38,36,0.41619873046875,0.25225830078125,-0.374267578125,0.789306640625,0.720703125,-0.36962890625,0.57177734375,20.375,-15.875,15.875
0,88,54,36,70,197,108,62,36,0.412109375,0.255126953125,-0.37347412109375,0.7908935546875,0.7236328125,-0.3623046875,0.56689453125,19.6875,-15.9375,16.125
0,88,52,36,62,154,98,69,40,0.40802001953125,0.2581787109375,-0.37261962890625,0.79248046875,0.7197265625,-0.36376953125,0.5595703125,20.625,-16.3125,15.75
0,100,54,39,66,153,98,71,42,0.40399169921875,0.2611083984375,-0.3714599609375,0.7940673828125,0.72021484375,-0.3525390625,0.55712890625,21.0,-15.25,15.4375
0,99,56,40,70,199,101,79,45,0.40008544921875,0.26385498046875,-0.3704833984375,0.79559326171875,0.72607421875,-0.3564453125,0.55810546875,19.75,-14.4375,15.4375
0,106,52,39,72,201,116,83,43,0.39605712890625,0.266357421875,-0.36944580078125,0.7972412109375,0.71533203125,-0.36474609375,0.5625,19.875,-14.1875,15.6875
0,108,50,34,67,176,106,70,42,0.39208984375,0.268798828125,-0.36834716796875,0.7989501953125,0.71630859375,-0.3525390625,0.5654296875,19.75,-13.5,16.4375
0,111,51,37,77,186,105,64,45,0.38824462890625,0.27105712890625,-0.36712646484375,0.80059814453125,0.71826171875,-0.34423828125,0.5634765625,19.3125,-12.5,16.3125
0,102,54,35,76,218,118,62,40,0.384521484375,0.27294921875,-0.36566162109375,0.80242919921875,0.7177734375,-0.33837890625,0.55126953125,19.6875,-8.8125,16.8125
0,103,53,38,71,190,124,76,46,0.38116455078125,0.2742919921875,-0.3646240234375,0.80401611328125,0.7197265625,-0.33740234375,0.55810546875,15.25,-7.25,16.5
0,93,50,38,80,214,104,75,53,0.3780517578125,0.275390625,-0.364013671875,0.805419921875,0.71533203125,-0.34912109375,0.56298828125,12.1875,-6.875,15.375
0,85,52,38,93,225,104,112,60,0.37493896484375,0.27618408203125,-0.3631591796875,0.8070068359375,0.72021484375,-0.349609375,0.5654296875,13.1875,-4.9375,16.5625
0,81,56,46,103,254,117,123,67,0.37152099609375,0.27679443359375,-0.36236572265625,0.80865478515625,0.7177734375,-0.35498046875,0.56689453125,13.0625,-4.6875,18.0
0,86,58,47,116,261,131,124,69,0.3681640625,0.27728271484375,-0.36199951171875,0.8101806640625,0.72119140625,-0.36376953125,0.56396484375,11.125,-5.125,18.3125
0,88,59,51,127,248,120,132,65,0.3648681640625,0.27752685546875,-0.36212158203125,0.8115234375,0.72509765625,-0.37939453125,0.56689453125,8.0625,-4.75,18.25
0,85,58,53,132,225,119,153,64,0.361572265625,0.27783203125,-0.36248779296875,0.81280517578125,0.72021484375,-0.39404296875,0.5703125,7.1875,-6.1875,17.9375
0,95,57,59,144,237,119,137,69,0.3580322265625,0.2784423828125,-0.36236572265625,0.814208984375,0.71728515625,-0.3916015625,0.5625,11.0,-6.625,18.0625
0,93,55,55,136,203,110,132,60,0.35443115234375,0.279541015625,-0.3623046875,0.8154296875,0.72119140625,-0.38671875,0.5576171875,11.25,-8.8125,17.3125
0,98,49,55,128,176,110,135,64,0.350830078125,0.281005859375,-0.36212158203125,0.8165283203125,0.7236328125,-0.3837890625,0.5576171875,12.0625,-10.75,16.5
0,98,48,50,116,172,107,118,62,0.3475341796875,0.2828369140625,-0.36181640625,0.81744384765625,0.740234375,-0.37255859375,0.5498046875,12.3125,-11.0625,14.875
0,97,55,50,107,181,101,106,60,0.344482421875,0.28509521484375,-0.36181640625,0.8179931640625,0.7412109375,-0.37451171875,0.55078125,10.25,-13.75,12.375
0,100,57,43,94,195,104,107,50,0.34149169921875,0.28753662109375,-0.362060546875,0.8182373046875,0.7451171875,-0.38671875,0.53759765625,9.5,-14.9375,11.125
0,124,58,41,130,208,113,159,60,0.33837890625,0.2904052734375,-0.36212158203125,0.81854248046875,0.7587890625,-0.37890625,0.52294921875,11.5,-15.625,11.4375
0,120,61,44,139,200,103,166,76,0.3353271484375,0.29339599609375,-0.36199951171875,0.81878662109375,0.7626953125,-0.3662109375,0.51220703125,12.1875,-15.375,10.875
0,135,71,50,156,207,118,179,78,0.33270263671875,0.296142578125,-0.36212158203125,0.81878662109375,0.7626953125,-0.3642578125,0.513671875,9.1875,-14.8125,9.4375
0,140,68,50,161,207,124,185,88,0.33038330078125,0.298828125,-0.36236572265625,0.818603515625,0.75732421875,-0.3740234375,0.52685546875,7.5,-15.5625,7.3125
0,144,78,55,157,193,123,198,94,0.328125,0.30157470703125,-0.36273193359375,0.818359375,0.76220703125,-0.384765625,0.515625,7.4375,-15.5,6.5
0,133,82,60,130,174,111,170,99,0.32586669921875,0.30419921875,-0.36285400390625,0.8182373046875,0.767578125,-0.3720703125,0.50732421875,8.3125,-13.75,7.3125
0,141,84,61,155,171,95,165,88,0.32391357421875,0.30670166015625,-0.362548828125,0.8182373046875,0.7666015625,-0.353515625,0.505859375,9.0,-11.875,6.4375
0,132,78,57,152,256,98,154,87,0.32257080078125,0.3087158203125,-0.3626708984375,0.81793212890625,0.77783203125,-0.35546875,0.49267578125,4.8125,-8.9375,4.625
0,128,85,54,163,266,96,148,96,0.32177734375,0.31024169921875,-0.36297607421875,0.81756591796875,0.76806640625,-0.36474609375,0.505859375,2.0625,-6.75,2.75
0,133,76,53,182,260,100,137,99,0.32122802734375,0.31134033203125,-0.36322021484375,0.8172607421875,0.77294921875,-0.37060546875,0.517578125,1.0,-5.1875,2.0625
0,130,74,50,209,287,107,138,89,0.320556640625,0.3125,-0.36346435546875,0.81695556640625,0.7783203125,-0.376953125,0.5009765625,1.8125,-4.25,2.75
0,126,74,46,193,285,105,138,89,0.320068359375,0.3133544921875,-0.3636474609375,0.81671142578125,0.77978515625,-0.365234375,0.4912109375,1.25,-2.3125,2.75
0,121,73,47,183,209,102,135,94,0.320068359375,0.3134765625,-0.3641357421875,0.81646728515625,0.759765625,-0.3740234375,0.50830078125,-2.4375,0.4375,1.5625
0,123,63,46,165,184,103,127,75,0.3204345703125,0.313720703125,-0.3646240234375,0.81597900390625,0.77587890625,-0.3896484375,0.509765625,-2.9375,0.3125,-1.1875
0,96,57,40,138,178,105,107,59,0.32135009765625,0.31396484375,-0.364990234375,0.8154296875,0.7802734375,-0.376953125,0.52099609375,-4.5,1.1875,-3.375
0,86,51,35,110,172,101,88,58,0.32269287109375,0.31390380859375,-0.3658447265625,0.81451416015625,0.76953125,-0.3759765625,0.50439453125,-8.3125,2.0625,-4.75
0,71,41,30,88,175,97,83,50,0.32427978515625,0.31378173828125,-0.3668212890625,0.8134765625,0.75537109375,-0.3857421875,0.49560546875,-9.0,2.6875,-6.5
0,67,34,32,85,182,98,82,36,0.32623291015625,0.3134765625,-0.36737060546875,0.81256103515625,0.7529296875,-0.3779296875,0.5048828125,-8.5,4.4375,-8.5
0,59,31,34,84,185,99,75,34,0.3287353515625,0.31317138671875,-0.36761474609375,0.81158447265625,0.7490234375,-0.3681640625,0.53125,-9.0625,4.5625,-11.3125
0,66,31,36,89,187,94,76,36,0.33087158203125,0.31317138671875,-0.36773681640625,0.81060791015625,0.73046875,-0.36083984375,0.5419921875,-7.75,1.0,-10.5
0,69,30,33,63,175,91,73,33,0.33233642578125,0.3134765625,-0.3682861328125,0.8096923828125,0.74658203125,-0.34716796875,0.5390625,-8.25,-1.4375,-6.1875
0,71,29,34,68,165,93,67,35,0.33404541015625,0.3131103515625,-0.36944580078125,0.80859375,0.751953125,-0.33837890625,0.5185546875,-13.125,1.4375,-4.625
0,64,29,31,72,168,81,59,37,0.33612060546875,0.3121337890625,-0.370849609375,0.8074951171875,0.7529296875,-0.349609375,0.49853515625,-14.9375,6.0625,-5.125
0,63,30,29,75,164,80,51,30,0.3382568359375,0.310791015625,-0.37225341796875,0.80645751953125,0.75927734375,-0.3701171875,0.50537109375,-15.1875,7.6875,-5.375
0,62,30,29,69,148,76,41,29,0.3402099609375,0.3094482421875,-0.37359619140625,0.80548095703125,0.76220703125,-0.3828125,0.5146484375,-14.625,7.0625,-5.0
0,55,29,31,65,169,71,35,28,0.341552734375,0.30810546875,-0.37481689453125,0.80487060546875,0.73681640625,-0.38427734375,0.53125,-12.375,4.75,-2.375
0,53,31,31,68,186,83,34,28,0.342529296875,0.306884765625,-0.37603759765625,0.80438232421875,0.734375,-0.37255859375,0.53857421875,-11.6875,3.4375,-0.0625
0,52,31,33,64,185,107,36,27,0.343505859375,0.3055419921875,-0.37744140625,0.8038330078125,0.74853515625,-0.37158203125,0.53564453125,-13.25,4.0,1.25
0,53,31,32,63,193,112,34,30,0.3443603515625,0.3037109375,-0.37945556640625,0.80316162109375,0.74072265625,-0.38818359375,0.537109375,-16.6875,4.5,2.625
0,50,33,31,80,199,114,35,28,0.3450927734375,0.3017578125,-0.38189697265625,0.802490234375,0.7255859375,-0.41259765625,0.53564453125,-17.875,3.125,2.75
0,48,33,29,85,162,128,34,28,0.34527587890625,0.30023193359375,-0.38427734375,0.80181884765625,0.70361328125,-0.431640625,0.5302734375,-15.125,-0.625,3.0
0,51,33,30,81,175,124,32,29,0.34490966796875,0.299072265625,-0.38604736328125,0.80157470703125,0.6845703125,-0.43359375,0.5361328125,-9.8125,-2.4375,3.75
0,51,31,29,82,176,104,26,29,0.34478759765625,0.29827880859375,-0.3870849609375,0.8013916015625,0.7080078125,-0.41162109375,0.53955078125,-7.1875,-1.0,2.8125
0,57,34,31,99,219,133,26,28,0.34515380859375,0.29736328125,-0.3883056640625,0.801025390625,0.73046875,-0.40087890625,0.5439453125,-10.1875,-0.125,2.125
0,53,35,31,85,226,134,25,28,0.34588623046875,0.29620361328125,-0.39056396484375,0.79998779296875,0.740234375,-0.4150390625,0.52880859375,-16.625,0.1875,1.25
0,56,37,33,80,227,140,26,31,0.3466796875,0.2947998046875,-0.3934326171875,0.79876708984375,0.71240234375,-0.43408203125,0.52734375,-20.375,-1.125,0.375
0,54,37,33,79,224,143,24,29,0.34747314453125,0.2935791015625,-0.39605712890625,0.797607421875,0.6953125,-0.44970703125,0.52099609375,-17.5625,-2.25,-1.5
0,58,38,34,84,217,142,26,29,0.3482666015625,0.29296875,-0.3980712890625,0.7965087890625,0.7119140625,-0.4443359375,0.51904296875,-14.0,-2.8125,-2.625
0,66,36,32,60,192,118,28,27,0.3492431640625,0.29254150390625,-0.39984130859375,0.7952880859375,0.72998046875,-0.43701171875,0.5166015625,-13.3125,-2.3125,-3.75
0,68,32,34,69,203,132,27,30,0.3504638671875,0.29193115234375,-0.40185546875,0.79400634765625,0.74462890625,-0.4453125,0.51611328125,-15.4375,-1.1875,-3.875
0,77,40,36,72,196,122,31,28,0.351806640625,0.291015625,-0.404296875,0.79248046875,0.75048828125,-0.46826171875,0.51171875,-17.875,-0.5625,-4.75
0,82,42,34,75,174,110,31,33,0.3529052734375,0.29010009765625,-0.40716552734375,0.79083251953125,0.7421875,-0.4873046875,0.490234375,-18.625,-1.3125,-3.875
0,81,46,35,77,228,116,32,34,0.35394287109375,0.289306640625,-0.4095458984375,0.7894287109375,0.7158203125,-0.482421875,0.4931640625,-15.75,-2.125,-4.875
0,65,46,35,82,226,103,29,34,0.355224609375,0.28887939453125,-0.41119384765625,0.78814697265625,0.7119140625,-0.4638671875,0.49072265625,-12.75,-1.625,-6.75
0,67,47,31,72,205,96,35,40,0.35687255859375,0.2884521484375,-0.41241455078125,0.7869873046875,0.71142578125,-0.451171875,0.50830078125,-12.0,-0.8125,-8.4375
0,71,37,26,75,224,90,31,40,0.35882568359375,0.287841796875,-0.413330078125,0.7857666015625,0.71826171875,-0.4453125,0.50927734375,-12.125,1.4375,-9.375
0,71,36,30,76,228,95,33,35,0.36077880859375,0.28717041015625,-0.414306640625,0.78466796875,0.72509765625,-0.45556640625,0.50439453125,-11.75,2.5625,-9.4375
0,71,31,26,69,173,94,30,36,0.362548828125,0.28668212890625,-0.41534423828125,0.78350830078125,0.73974609375,-0.46240234375,0.48828125,-10.4375,1.9375,-8.6875
0,79,36,29,76,158,107,33,37,0.36376953125,0.28643798828125,-0.4163818359375,0.78240966796875,0.7509765625,-0.46826171875,0.484375,-8.875,0.375,-6.8125
0,85,42,30,82,174,100,29,31,0.36474609375,0.2862548828125,-0.4173583984375,0.78155517578125,0.74609375,-0.453125,0.48291015625,-7.9375,-0.375,-4.8125
0,94,59,36,98,172,143,57,47,0.36553955078125,0.2860107421875,-0.4183349609375,0.78070068359375,0.73681640625,-0.44873046875,0.48974609375,-8.3125,-1.5,-3.9375
0,94,65,39,101,162,145,80,52,0.36627197265625,0.28564453125,-0.41900634765625,0.7801513671875,0.744140625,-0.458984375,0.4921875,-5.8125,0.75,-3.3125
0,104,78,48,129,168,137,107,63,0.36663818359375,0.28497314453125,-0.41937255859375,0.780029296875,0.72021484375,-0.45947265625,0.49169921875,-3.75,1.25,-1.5625
0,117,89,51,132,177,133,140,92,0.366943359375,0.28448486328125,-0.4193115234375,0.78009033203125,0.7314453125,-0.46142578125,0.47607421875,-0.5,2.875,-1.6875
0,132,107,60,162,216,136,157,99,0.3671875,0.28436279296875,-0.41876220703125,0.78033447265625,0.72705078125,-0.455078125,0.50048828125,2.125,1.3125,-2.5
0,143,123,61,194,200,92,169,123,0.36712646484375,0.28424072265625,-0.4188232421875,0.78033447265625,0.7265625,-0.47265625,0.5068359375,0.5625,0.3125,0.75
0,154,125,61,201,239,116,174,125,0.36669921875,0.284423828125,-0.41827392578125,0.78082275390625,0.72119140625,-0.4599609375,0.49755859375,4.8125,-1.625,0.0
0,154,162,58,212,250,123,166,127,0.3663330078125,0.2843017578125,-0.41802978515625,0.7811279296875,0.72021484375,-0.48388671875,0.48486328125,3.6875,-0.0625,-0.75
0,158,168,63,219,246,118,147,117,0.36590576171875,0.2845458984375,-0.4173583984375,0.7816162109375,0.7294921875,-0.47509765625,0.482421875,6.5,-0.3125,-1.0
0,161,162,56,205,198,127,142,128,0.3658447265625,0.28497314453125,-0.41632080078125,0.78204345703125,0.72998046875,-0.46826171875,0.49560546875,7.375,-0.25,-3.5625
0,160,153,56,231,198,124,134,107,0.365966796875,0.2855224609375,-0.41473388671875,0.7825927734375,0.712890625,-0.44091796875,0.50830078125,8.9375,-0.1875,-4.6875
0,169,170,55,228,169,104,123,120,0.3660888671875,0.2861328125,-0.41357421875,0.782958984375,0.7265625,-0.43359375,0.5146484375,6.0,-1.1875,-3.6875
0,190,144,61,212,211,117,136,130,0.36651611328125,0.28619384765625,-0.41259765625,0.78326416015625,0.716796875,-0.43701171875,0.517578125,4.0,0.8125,-4.0
0,205,147,54,209,212,120,168,144,0.3668212890625,0.28643798828125,-0.41143798828125,0.78363037109375,0.72705078125,-0.41455078125,0.52001953125,4.5,0.4375,-2.9375
0,197,145,53,202,219,104,163,146,0.366943359375,0.2864990234375,-0.41070556640625,0.78387451171875,0.734375,-0.41015625,0.5068359375,2.75,1.0,-0.5625
0,186,138,51,132,217,112,162,145,0.3668212890625,0.2860107421875,-0.41046142578125,0.7843017578125,0.72119140625,-0.43603515625,0.505859375,1.0,1.75,1.1875
