,channel 1,channel 2,channel 3,channel 4,channel 5,channel 6,channel 7,channel 8,channel 9,channel 10,channel 11,channel 12,channel 13,channel 14,channel 15,channel 16,channel 17,channel 18
0,25,32,41,39,86,38,23,25,-0.11138916015625,-0.59466552734375,-0.107666015625,0.78887939453125,-0.873046875,0.01806640625,0.15283203125,-35.0,9.625,33.8125
0,23,25,30,29,53,28,22,24,-0.12164306640625,-0.59063720703125,-0.11016845703125,0.79010009765625,-0.4208984375,-0.0078125,0.7001953125,-49.875,11.625,33.9375
0,22,22,30,31,46,27,23,25,-0.130615234375,-0.59368896484375,-0.11474609375,0.78570556640625,-0.99267578125,-0.04638671875,0.10693359375,-50.75,14.75,31.3125
0,22,22,27,30,48,27,23,28,-0.140380859375,-0.59515380859375,-0.1204833984375,0.78204345703125,-0.92529296875,-0.1220703125,0.22265625,-58.625,15.25,35.125
0,23,23,26,24,30,25,25,27,-0.149658203125,-0.596923828125,-0.12579345703125,0.778076171875,-0.96630859375,-0.12109375,0.21875,-54.875,16.75,35.0
0,25,23,26,42,35,25,25,26,-0.1583251953125,-0.59893798828125,-0.1298828125,0.774169921875,-0.96533203125,-0.10205078125,0.20458984375,-47.1875,16.8125,35.6875
0,25,23,36,44,32,26,25,25,-0.1671142578125,-0.6009521484375,-0.13372802734375,0.7701416015625,-0.93408203125,-0.0673828125,0.15185546875,-47.375,14.0,35.125
0,26,25,38,43,32,25,26,24,-0.174560546875,-0.6065673828125,-0.13800048828125,0.7633056640625,-1.30859375,-0.009765625,-0.14990234375,-44.0625,15.4375,29.8125
0,25,26,41,46,34,28,30,25,-0.18609619140625,-0.5987548828125,-0.1387939453125,0.76654052734375,-0.41552734375,0.1435546875,1.1142578125,-50.875,14.375,28.25
0,31,30,48,46,36,33,31,28,-0.19012451171875,-0.60687255859375,-0.14599609375,0.7578125,-1.419921875,-0.2197265625,-0.52001953125,-40.1875,12.375,25.25
0,31,32,51,32,31,34,31,30,-0.19342041015625,-0.61163330078125,-0.15234375,0.7518310546875,-1.341796875,-0.25439453125,-0.20556640625,-35.3125,11.75,21.1875
0,34,35,45,33,34,34,32,31,-0.2010498046875,-0.60589599609375,-0.1541748046875,0.754150390625,-0.58740234375,-0.0048828125,0.84619140625,-38.4375,11.5,19.25
0,34,35,43,33,35,36,31,31,-0.209228515625,-0.59991455078125,-0.15557861328125,0.75640869140625,-0.51220703125,0.0927734375,0.85498046875,-39.9375,10.375,16.4375
0,35,36,40,31,33,35,28,30,-0.21142578125,-0.60516357421875,-0.16180419921875,0.750244140625,-1.2744140625,-0.158203125,-0.30126953125,-31.5,9.25,12.5
0,31,34,30,33,30,32,25,29,-0.21136474609375,-0.611572265625,-0.16973876953125,0.7432861328125,-1.48193359375,-0.3037109375,-0.4619140625,-28.5,8.6875,8.5625
0,32,32,25,31,30,31,27,29,-0.216064453125,-0.606201171875,-0.1732177734375,0.74554443359375,-0.720703125,-0.09814453125,0.7197265625,-34.25,8.0625,6.625
0,28,27,26,32,37,30,28,28,-0.21923828125,-0.60614013671875,-0.17791748046875,0.7435302734375,-0.89892578125,-0.02783203125,0.16796875,-32.8125,8.0625,1.625
0,27,26,27,36,44,28,26,28,-0.22088623046875,-0.606201171875,-0.18133544921875,0.74224853515625,-0.8447265625,-0.0751953125,0.130859375,-20.5,4.5625,1.8125
0,26,24,29,46,50,27,26,25,-0.2215576171875,-0.60504150390625,-0.18560791015625,0.74188232421875,-1.02001953125,-0.19775390625,0.24658203125,-19.8125,3.8125,0.375
0,24,23,30,45,50,26,27,25,-0.22125244140625,-0.6031494140625,-0.18927001953125,0.74261474609375,-0.95654296875,-0.23974609375,0.30810546875,-13.0625,2.1875,-1.5625
0,22,21,32,47,49,24,25,26,-0.2186279296875,-0.60205078125,-0.19110107421875,0.7437744140625,-0.9501953125,-0.27783203125,0.2919921875,4.75,3.125,-2.3125
0,21,24,32,45,44,23,26,25,-0.2139892578125,-0.60125732421875,-0.1898193359375,0.74615478515625,-0.95361328125,-0.26123046875,0.30126953125,26.3125,-1.25,-3.0
0,22,23,32,42,35,22,27,24,-0.2064208984375,-0.6024169921875,-0.18841552734375,0.7476806640625,-1.3740234375,-0.390625,0.15185546875,40.3125,-3.3125,-4.4375
0,23,22,33,35,24,21,27,25,-0.1978759765625,-0.6021728515625,-0.185302734375,0.75091552734375,-1.0849609375,-0.36328125,0.185546875,50.75,-9.875,-8.125
0,22,21,33,34,25,20,28,24,-0.19305419921875,-0.5977783203125,-0.17864990234375,0.75726318359375,-0.64990234375,-0.0107421875,0.58935546875,45.5625,-13.0625,-10.375
0,21,25,39,36,27,22,28,21,-0.182373046875,-0.6044921875,-0.17681884765625,0.7550048828125,-1.49853515625,-0.32958984375,-0.59375,56.3125,-17.5,-13.625
0,21,25,44,37,26,23,25,23,-0.172119140625,-0.60443115234375,-0.17242431640625,0.75848388671875,-1.2705078125,-0.27734375,0.06298828125,61.6875,-21.3125,-18.3125
0,21,26,44,39,27,26,29,27,-0.16595458984375,-0.59368896484375,-0.16375732421875,0.77020263671875,-0.4677734375,0.0263671875,1.06787109375,55.5625,-25.4375,-22.0625
0,26,31,47,38,31,32,31,30,-0.15826416015625,-0.58868408203125,-0.15673828125,0.777099609375,-0.716796875,0.01318359375,0.4072265625,57.0625,-30.1875,-25.125
0,29,34,50,40,34,33,30,30,-0.1451416015625,-0.5946044921875,-0.15399169921875,0.775634765625,-1.53125,-0.30859375,-0.67431640625,68.5625,-32.75,-29.375
0,30,32,44,36,35,33,31,31,-0.1334228515625,-0.59149169921875,-0.14825439453125,0.78125,-1.1728515625,-0.23388671875,0.1953125,70.75,-35.375,-30.3125
0,30,33,38,36,35,33,32,31,-0.1259765625,-0.577880859375,-0.13848876953125,0.79437255859375,-0.40478515625,0.0966796875,1.169921875,62.1875,-36.9375,-29.625
0,30,35,43,34,34,30,28,27,-0.10809326171875,-0.570556640625,-0.12664794921875,0.80419921875,-0.90869140625,-0.06591796875,0.232421875,46.625,-39.75,-33.375
0,27,34,52,34,32,26,26,23,-0.099365234375,-0.5667724609375,-0.1239013671875,0.80841064453125,-0.85791015625,-0.056640625,0.23046875,41.6875,-31.1875,-38.125
0,25,36,84,40,28,25,26,24,-0.0902099609375,-0.5634765625,-0.1219482421875,0.8121337890625,-0.8896484375,-0.095703125,0.24072265625,40.0625,-26.875,-40.4375
0,24,59,120,47,29,24,24,25,-0.08056640625,-0.5611572265625,-0.11962890625,0.8150634765625,-0.935546875,-0.13232421875,0.2275390625,44.125,-22.1875,-38.8125
0,26,78,141,103,47,24,24,24,-0.069580078125,-0.56072998046875,-0.115478515625,0.81695556640625,-1.142578125,-0.16943359375,0.2265625,57.9375,-15.5625,-37.0
0,26,90,197,106,59,27,25,25,-0.05914306640625,-0.56134033203125,-0.107177734375,0.8184814453125,-1.0947265625,-0.02685546875,0.1103515625,73.5625,-18.0,-29.5625
0,27,95,252,110,60,25,26,27,-0.04852294921875,-0.55548095703125,-0.09912109375,0.82415771484375,-0.640625,-0.03564453125,0.68310546875,69.125,-13.625,-31.5
0,29,114,308,109,61,23,25,26,-0.0389404296875,-0.55126953125,-0.08929443359375,0.82861328125,-0.58203125,0.08544921875,0.5263671875,72.25,-12.5625,-27.5
0,33,168,390,113,62,24,25,24,-0.02728271484375,-0.5601806640625,-0.08203125,0.8238525390625,-1.38720703125,-0.177734375,-0.54345703125,78.9375,-9.125,-26.25
0,38,227,423,68,54,25,24,23,-0.01715087890625,-0.5638427734375,-0.076416015625,0.8221435546875,-1.22900390625,-0.1455078125,-0.01611328125,62.5625,-5.4375,-28.0625
0,46,244,426,69,43,25,25,26,-0.0111083984375,-0.55523681640625,-0.07086181640625,0.82861328125,-0.46044921875,0.1572265625,1.06103515625,35.875,-2.5,-28.0
0,45,254,441,69,47,26,25,24,-0.00665283203125,-0.55377197265625,-0.06866455078125,0.829833984375,-0.6943359375,0.12109375,0.37548828125,18.875,-3.375,-28.0625
0,46,260,404,66,46,27,25,25,-0.0025634765625,-0.5640869140625,-0.07366943359375,0.8223876953125,-1.45263671875,-0.205078125,-0.61767578125,-3.375,-2.1875,-29.625
0,44,229,317,56,44,27,25,33,-0.00213623046875,-0.5634765625,-0.08221435546875,0.822021484375,-1.01708984375,-0.1923828125,0.41162109375,-38.5,0.3125,-26.75
0,40,177,266,53,37,27,27,40,-0.00360107421875,-0.56878662109375,-0.0926513671875,0.8172607421875,-1.46923828125,-0.267578125,-0.09814453125,-48.5625,-1.75,-21.625
0,33,150,224,47,36,29,40,39,-0.00555419921875,-0.56610107421875,-0.10260009765625,0.81793212890625,-0.9501953125,-0.310546875,0.501953125,-51.125,-5.5625,-15.5625
0,31,131,112,35,30,29,44,39,-0.0081787109375,-0.56365966796875,-0.1107177734375,0.8184814453125,-0.9814453125,-0.16796875,0.3798828125,-46.75,-13.25,-16.5
0,30,116,88,34,29,29,47,38,-0.0126953125,-0.561279296875,-0.12054443359375,0.8187255859375,-0.966796875,-0.13916015625,0.36474609375,-62.25,-14.0,-15.5625
0,28,114,80,36,42,29,47,32,-0.0186767578125,-0.55902099609375,-0.13330078125,0.81817626953125,-0.98974609375,-0.16748046875,0.3271484375,-80.0625,-14.375,-17.25
0,26,95,69,36,42,30,47,23,-0.02508544921875,-0.55645751953125,-0.14794921875,0.81719970703125,-0.92919921875,-0.2001953125,0.33056640625,-90.5,-13.25,-19.9375
0,24,111,63,40,65,26,38,22,-0.02923583984375,-0.55322265625,-0.16204833984375,0.81658935546875,-0.87255859375,-0.27490234375,0.37109375,-79.875,-11.125,-24.9375
0,25,110,57,39,65,26,32,23,-0.029541015625,-0.5498046875,-0.17315673828125,0.81658935546875,-0.85546875,-0.32421875,0.37744140625,-52.4375,-10.5625,-31.3125
0,25,97,53,37,65,24,29,23,-0.02716064453125,-0.54608154296875,-0.1805419921875,0.81756591796875,-0.88916015625,-0.32666015625,0.36962890625,-25.9375,-14.5625,-34.3125
0,29,98,58,39,76,26,29,26,-0.02301025390625,-0.5419921875,-0.18499755859375,0.8194580078125,-0.90673828125,-0.32421875,0.3779296875,-6.375,-18.1875,-35.25
0,28,98,65,38,82,27,28,29,-0.01715087890625,-0.53765869140625,-0.18756103515625,0.8218994140625,-0.92626953125,-0.3486328125,0.35546875,9.6875,-22.0625,-37.4375
0,30,74,66,39,74,28,27,29,-0.0108642578125,-0.53289794921875,-0.1898193359375,0.82452392578125,-0.94921875,-0.32470703125,0.33544921875,12.0,-26.8125,-41.9375
0,30,74,68,50,109,31,27,29,-0.00439453125,-0.52703857421875,-0.19219970703125,0.8277587890625,-0.9501953125,-0.31787109375,0.36669921875,11.875,-32.5,-45.9375
0,30,69,67,61,117,34,28,29,0.0015869140625,-0.5206298828125,-0.19500732421875,0.8311767578125,-0.97802734375,-0.29638671875,0.37744140625,7.5,-37.5,-48.5625
0,28,54,64,62,106,32,28,28,0.0062255859375,-0.51385498046875,-0.19964599609375,0.83428955078125,-1.0126953125,-0.28515625,0.3955078125,-6.375,-40.375,-50.5
0,27,74,77,63,106,32,27,25,0.01025390625,-0.506103515625,-0.20587158203125,0.83746337890625,-0.98681640625,-0.30615234375,0.4443359375,-16.3125,-43.8125,-52.6875
0,26,71,80,61,101,34,28,26,0.01507568359375,-0.4976806640625,-0.2125244140625,0.84075927734375,-0.921875,-0.3515625,0.478515625,-15.875,-43.5625,-55.8125
0,27,65,79,54,65,32,26,25,0.0208740234375,-0.48907470703125,-0.2183837890625,0.84423828125,-0.88232421875,-0.345703125,0.4921875,-9.9375,-43.0,-59.25
0,29,67,79,42,67,48,31,26,0.0274658203125,-0.48028564453125,-0.2232666015625,0.8477783203125,-0.86767578125,-0.337890625,0.52001953125,-4.1875,-42.25,-62.0
0,29,66,75,38,69,69,49,25,0.0345458984375,-0.4713134765625,-0.22747802734375,0.8514404296875,-0.8505859375,-0.35546875,0.52783203125,1.0,-43.0,-62.375
0,31,39,50,38,65,71,50,26,0.04205322265625,-0.4619140625,-0.2305908203125,0.85540771484375,-0.8505859375,-0.37451171875,0.517578125,8.6875,-47.25,-62.4375
0,32,43,38,44,62,70,50,24,0.0494384765625,-0.4515380859375,-0.23236083984375,0.86004638671875,-0.82080078125,-0.3662109375,0.52490234375,15.5625,-53.8125,-59.625
0,32,46,41,58,61,75,53,26,0.0565185546875,-0.440185546875,-0.23370361328125,0.8651123046875,-0.8056640625,-0.3271484375,0.52783203125,16.5,-61.4375,-60.9375
0,30,48,43,67,47,68,51,27,0.06317138671875,-0.428955078125,-0.23712158203125,0.86932373046875,-0.7734375,-0.2880859375,0.458984375,4.5,-63.4375,-66.125
0,33,60,48,68,48,55,51,26,0.0682373046875,-0.418212890625,-0.24609375,0.8717041015625,-0.759765625,-0.333984375,0.45556640625,-28.25,-61.6875,-71.0625
0,35,69,64,67,46,57,56,26,0.07330322265625,-0.406982421875,-0.26055908203125,0.8724365234375,-0.755859375,-0.50634765625,0.509765625,-54.125,-60.6875,-78.9375
0,39,73,76,67,51,79,72,28,0.079833984375,-0.3941650390625,-0.2750244140625,0.873291015625,-0.7392578125,-0.6396484375,0.50537109375,-45.75,-67.6875,-84.1875
0,40,77,79,58,46,76,71,26,0.08685302734375,-0.3790283203125,-0.2869873046875,0.87542724609375,-0.68115234375,-0.58251953125,0.50634765625,-31.75,-79.625,-87.25
0,40,78,79,54,42,81,73,26,0.094482421875,-0.36224365234375,-0.298828125,0.8778076171875,-0.564453125,-0.5732421875,0.556640625,-31.1875,-82.0625,-90.5625
0,39,73,81,57,38,77,61,26,0.1021728515625,-0.3446044921875,-0.30914306640625,0.88043212890625,-0.49072265625,-0.541015625,0.60009765625,-26.1875,-83.1875,-89.625
0,41,74,83,64,44,79,62,27,0.11016845703125,-0.32733154296875,-0.318603515625,0.8826904296875,-0.4638671875,-0.51708984375,0.5927734375,-23.0625,-80.9375,-90.6875
0,39,72,80,65,38,66,43,26,0.1181640625,-0.3106689453125,-0.32958984375,0.8836669921875,-0.4296875,-0.51904296875,0.58935546875,-34.0,-76.5,-93.6875
0,39,77,85,69,43,68,44,26,0.1259765625,-0.29461669921875,-0.34295654296875,0.88299560546875,-0.38037109375,-0.5576171875,0.59033203125,-49.125,-72.4375,-95.125
0,40,80,87,66,43,61,42,28,0.13482666015625,-0.27886962890625,-0.35723876953125,0.88116455078125,-0.33349609375,-0.6650390625,0.60498046875,-52.1875,-66.375,-99.5625
0,55,119,107,72,49,85,53,30,0.14385986328125,-0.2626953125,-0.367919921875,0.8802490234375,-0.28271484375,-0.6787109375,0.59619140625,-31.0,-66.6875,-93.9375
0,61,130,121,86,72,108,76,43,0.15289306640625,-0.24652099609375,-0.3743896484375,0.8807373046875,-0.21533203125,-0.60595703125,0.580078125,-9.125,-64.875,-86.5625
0,79,141,120,90,82,131,163,114,0.16058349609375,-0.23187255859375,-0.37957763671875,0.881103515625,-0.125,-0.48486328125,0.5537109375,-10.0,-56.3125,-74.25
0,96,155,143,102,88,153,301,179,0.1656494140625,-0.2198486328125,-0.38714599609375,0.87994384765625,-0.0888671875,-0.45556640625,0.5693359375,-33.5,-48.4375,-59.4375
0,118,167,159,114,96,157,316,210,0.170166015625,-0.20947265625,-0.39691162109375,0.87725830078125,-0.08935546875,-0.63037109375,0.57666015625,-44.4375,-42.625,-55.125
0,121,151,161,119,103,151,324,239,0.17266845703125,-0.1993408203125,-0.40277099609375,0.87646484375,-0.09375,-0.68994140625,0.6005859375,-22.5,-45.0,-38.4375
0,128,140,146,107,86,136,346,264,0.173583984375,-0.1898193359375,-0.40655517578125,0.87664794921875,-0.0703125,-0.71484375,0.57275390625,-9.1875,-45.0625,-24.9375
0,132,134,150,111,91,134,331,279,0.1749267578125,-0.180908203125,-0.407958984375,0.87762451171875,-0.0546875,-0.71142578125,0.56005859375,4.75,-39.4375,-22.5
0,141,133,123,95,83,110,216,288,0.17669677734375,-0.17315673828125,-0.40643310546875,0.8795166015625,-0.02490234375,-0.6220703125,0.572265625,17.0,-29.9375,-17.9375
0,127,135,100,77,73,104,202,295,0.177978515625,-0.167236328125,-0.40509033203125,0.88104248046875,0.01416015625,-0.59375,0.58056640625,11.75,-20.25,-10.3125
0,122,179,74,64,63,100,195,320,0.1788330078125,-0.16375732421875,-0.40380859375,0.88214111328125,-0.0078125,-0.62451171875,0.59716796875,8.25,-9.5,-4.3125
0,187,218,71,65,66,95,154,418,0.1793212890625,-0.16217041015625,-0.4014892578125,0.88336181640625,-0.0234375,-0.63134765625,0.60009765625,12.0,-0.875,2.375
0,190,258,58,50,46,57,122,456,0.1793212890625,-0.16204833984375,-0.39837646484375,0.884765625,-0.0341796875,-0.6103515625,0.6044921875,13.375,5.8125,8.5625
0,192,299,73,53,50,59,127,500,0.1787109375,-0.16375732421875,-0.396484375,0.88543701171875,-0.0283203125,-0.59814453125,0.63623046875,1.3125,13.9375,13.9375
0,222,344,96,59,54,61,126,536,0.1783447265625,-0.1673583984375,-0.39630126953125,0.88494873046875,-0.0771484375,-0.6728515625,0.6240234375,-7.9375,21.375,12.9375
0,232,410,116,58,52,58,115,523,0.1785888671875,-0.17132568359375,-0.3970947265625,0.8837890625,-0.125,-0.740234375,0.6416015625,-12.0625,22.8125,7.5625
0,187,482,148,61,52,59,100,457,0.179931640625,-0.1754150390625,-0.39801025390625,0.88232421875,-0.1396484375,-0.76123046875,0.62548828125,-11.375,25.5,1.5
0,200,496,157,60,50,60,91,406,0.181640625,-0.179931640625,-0.3994140625,0.88037109375,-0.1142578125,-0.81298828125,0.5546875,-9.1875,29.0625,1.625
0,191,560,158,59,48,55,78,325,0.18408203125,-0.1842041015625,-0.39813232421875,0.87957763671875,-0.13720703125,-0.77734375,0.5380859375,7.0,29.875,0.1875
0,158,550,147,56,46,50,56,232,0.18609619140625,-0.1881103515625,-0.392333984375,0.88092041015625,-0.17236328125,-0.74658203125,0.5791015625,32.0625,28.9375,6.6875
0,143,498,140,54,41,46,50,200,0.187744140625,-0.19122314453125,-0.38629150390625,0.882568359375,-0.18115234375,-0.6708984375,0.591796875,30.9375,24.0625,6.625
0,136,498,114,49,44,41,41,137,0.18853759765625,-0.1944580078125,-0.38323974609375,0.883056640625,-0.18798828125,-0.65087890625,0.6298828125,9.1875,21.25,6.1875
0,109,483,105,66,60,38,38,106,0.1875,-0.198974609375,-0.3839111328125,0.8819580078125,-0.17919921875,-0.736328125,0.6474609375,-13.6875,22.75,14.5
0,98,415,100,75,87,47,37,64,0.1846923828125,-0.20489501953125,-0.386962890625,0.8798828125,-0.208984375,-0.80615234375,0.537109375,-23.1875,22.0625,22.625
0,90,407,104,155,112,50,41,57,0.17999267578125,-0.21087646484375,-0.38671875,0.8795166015625,-0.23681640625,-0.8203125,0.58544921875,-7.125,19.75,37.375
0,101,433,113,176,130,54,44,50,0.17352294921875,-0.21832275390625,-0.38128662109375,0.88134765625,-0.27197265625,-0.71875,0.54150390625,18.5,24.375,56.0
0,94,347,130,188,130,54,44,47,0.1666259765625,-0.2288818359375,-0.3775634765625,0.88165283203125,-0.37255859375,-0.66796875,0.5205078125,1.625,35.8125,56.3125
0,84,346,160,314,161,61,48,48,0.1617431640625,-0.2392578125,-0.3779296875,0.879638671875,-0.4111328125,-0.6494140625,0.5283203125,-22.9375,37.8125,37.0625
0,81,316,185,330,163,56,46,46,0.1583251953125,-0.24853515625,-0.381103515625,0.87628173828125,-0.34814453125,-0.75537109375,0.578125,-35.6875,39.4375,28.4375
0,79,309,279,389,204,62,46,48,0.154541015625,-0.25677490234375,-0.38177490234375,0.87432861328125,-0.40185546875,-0.75732421875,0.61572265625,-22.125,33.5,30.625
0,63,307,308,449,241,67,48,47,0.15087890625,-0.2620849609375,-0.37689208984375,0.87548828125,-0.48779296875,-0.6318359375,0.69775390625,6.125,18.1875,28.0
0,55,308,345,473,246,66,48,45,0.1490478515625,-0.2662353515625,-0.37579345703125,0.875,-0.451171875,-0.68701171875,0.5908203125,-4.625,14.875,13.125
0,45,280,364,458,251,70,45,42,0.1488037109375,-0.27069091796875,-0.3824462890625,0.87078857421875,-0.38525390625,-0.81005859375,0.49853515625,-40.9375,19.8125,-2.75
0,41,257,366,479,257,73,44,40,0.14788818359375,-0.27520751953125,-0.390625,0.86590576171875,-0.42578125,-1.0185546875,0.55859375,-47.5625,19.125,0.5625
0,42,233,343,460,241,74,44,38,0.1451416015625,-0.2772216796875,-0.391845703125,0.86517333984375,-0.43994140625,-0.95654296875,0.546875,-6.5625,1.375,16.8125
0,42,378,414,462,217,77,39,38,0.142333984375,-0.2769775390625,-0.3863525390625,0.8681640625,-0.43017578125,-0.79541015625,0.56201171875,30.625,-9.6875,22.75
0,45,436,396,469,230,82,43,41,0.1400146484375,-0.277099609375,-0.38299560546875,0.8699951171875,-0.3828125,-0.7802734375,0.53955078125,19.125,-5.375,19.0625
0,47,515,370,435,216,82,42,40,0.13824462890625,-0.27777099609375,-0.38482666015625,0.8692626953125,-0.4140625,-0.8447265625,0.47119140625,-6.25,-4.3125,7.375
0,45,525,384,428,217,78,41,39,0.135986328125,-0.27587890625,-0.38531494140625,0.8699951171875,-0.4736328125,-0.955078125,0.65234375,-0.4375,-17.0625,6.9375
0,44,531,364,401,213,71,40,40,0.13525390625,-0.27105712890625,-0.3802490234375,0.87384033203125,-0.47265625,-0.91552734375,0.60546875,41.375,-31.125,3.625
0,38,425,287,338,199,63,41,36,0.1370849609375,-0.26397705078125,-0.3739013671875,0.87847900390625,-0.37451171875,-0.8466796875,0.52783203125,57.5,-35.5,-9.125
0,36,370,290,308,192,61,39,33,0.14007568359375,-0.25689697265625,-0.36993408203125,0.88177490234375,-0.3232421875,-0.80517578125,0.49853515625,45.3125,-32.375,-18.1875
0,37,272,296,294,179,51,39,33,0.141845703125,-0.25048828125,-0.36822509765625,0.884033203125,-0.35302734375,-0.80126953125,0.5341796875,28.0625,-32.875,-17.0
0,50,286,269,274,177,59,39,35,0.1434326171875,-0.24346923828125,-0.36517333984375,0.88702392578125,-0.3623046875,-0.82958984375,0.4775390625,41.5625,-38.75,-15.375
0,55,305,350,241,148,57,37,34,0.14532470703125,-0.2347412109375,-0.3597412109375,0.8912353515625,-0.3154296875,-0.77294921875,0.47802734375,56.625,-45.5,-15.375
0,64,324,381,230,173,64,36,40,0.1456298828125,-0.22625732421875,-0.35491943359375,0.89532470703125,-0.265625,-0.6884765625,0.49169921875,47.5,-46.0,-7.5625
0,70,321,390,206,164,60,34,43,0.14520263671875,-0.21826171875,-0.351318359375,0.8988037109375,-0.23095703125,-0.63330078125,0.5048828125,35.9375,-43.625,-5.0
0,73,321,416,184,159,59,31,43,0.143310546875,-0.2119140625,-0.3502197265625,0.90106201171875,-0.23876953125,-0.6455078125,0.5166015625,18.125,-39.5,1.375
0,70,305,419,177,147,48,30,42,0.14013671875,-0.206787109375,-0.35009765625,0.90277099609375,-0.23828125,-0.65771484375,0.5712890625,7.5,-35.0625,8.9375
0,75,357,360,190,161,53,34,47,0.13543701171875,-0.20306396484375,-0.3507080078125,0.90411376953125,-0.2119140625,-0.6591796875,0.5537109375,1.3125,-29.875,19.3125
0,68,354,323,174,122,40,29,41,0.13018798828125,-0.201171875,-0.35186767578125,0.90484619140625,-0.20458984375,-0.65771484375,0.564453125,-5.625,-21.0625,25.4375
0,64,380,309,171,125,69,48,37,0.12420654296875,-0.200927734375,-0.35321044921875,0.90521240234375,-0.255859375,-0.66064453125,0.57421875,-9.5625,-15.875,29.5625
0,63,394,267,167,126,215,97,38,0.11767578125,-0.201904296875,-0.355224609375,0.90509033203125,-0.2880859375,-0.71240234375,0.5888671875,-14.3125,-11.1875,33.5625
0,61,384,253,128,139,298,216,47,0.11004638671875,-0.203369140625,-0.3577880859375,0.90472412109375,-0.353515625,-0.75927734375,0.60302734375,-17.875,-13.375,37.625
0,50,327,225,98,143,470,302,53,0.1016845703125,-0.20343017578125,-0.3575439453125,0.90576171875,-0.380859375,-0.76025390625,0.67431640625,-3.75,-21.625,41.6875
0,51,321,177,86,144,553,361,57,0.0943603515625,-0.2020263671875,-0.35479736328125,0.907958984375,-0.345703125,-0.71630859375,0.689453125,11.625,-24.6875,38.0625
0,47,302,137,77,152,571,371,60,0.08837890625,-0.2005615234375,-0.35247802734375,0.9097900390625,-0.31591796875,-0.677734375,0.71484375,7.625,-20.4375,31.3125
0,43,261,124,65,157,548,380,63,0.08294677734375,-0.1995849609375,-0.35333251953125,0.91015625,-0.28076171875,-0.65966796875,0.72998046875,-13.1875,-14.8125,26.1875
0,38,262,116,61,133,542,366,60,0.07763671875,-0.19873046875,-0.35687255859375,0.909423828125,-0.20068359375,-0.6318359375,0.6962890625,-29.5,-10.5,25.3125
0,38,254,101,64,146,466,323,61,0.0718994140625,-0.19842529296875,-0.36328125,0.907470703125,-0.16943359375,-0.65478515625,0.66162109375,-45.6875,-7.375,27.0625
0,36,250,91,67,162,373,316,63,0.06610107421875,-0.1988525390625,-0.37158203125,0.9044189453125,-0.16845703125,-0.67724609375,0.556640625,-52.875,-5.375,26.9375
0,36,247,110,71,152,369,336,65,0.06085205078125,-0.19970703125,-0.38116455078125,0.900634765625,-0.18115234375,-0.81005859375,0.5263671875,-54.6875,-2.3125,25.3125
0,40,271,116,71,165,365,329,63,0.0562744140625,-0.19952392578125,-0.38873291015625,0.897705078125,-0.21240234375,-0.884765625,0.57177734375,-41.125,-6.625,22.25
0,80,324,128,71,166,330,302,83,0.0517578125,-0.19781494140625,-0.39288330078125,0.89654541015625,-0.216796875,-0.84619140625,0.54638671875,-19.9375,-16.125,22.0625
0,99,355,127,56,138,264,295,152,0.0467529296875,-0.1942138671875,-0.39495849609375,0.896728515625,-0.21533203125,-0.83984375,0.58740234375,-8.6875,-26.875,22.5625
0,107,396,133,50,114,284,242,164,0.0413818359375,-0.19012451171875,-0.39788818359375,0.89654541015625,-0.2021484375,-0.81787109375,0.5537109375,-13.75,-30.6875,22.4375
0,114,384,114,49,114,306,242,182,0.03643798828125,-0.18621826171875,-0.4024658203125,0.89556884765625,-0.25732421875,-0.86572265625,0.552734375,-22.0,-30.4375,16.625
0,131,386,105,47,99,312,260,249,0.03289794921875,-0.18243408203125,-0.4073486328125,0.89422607421875,-0.2880859375,-0.9462890625,0.5625,-20.375,-27.625,8.9375
0,117,348,90,54,100,316,273,269,0.03118896484375,-0.17755126953125,-0.4093017578125,0.8944091796875,-0.2578125,-0.9345703125,0.5966796875,-2.125,-28.0,1.0
0,113,313,89,56,100,331,277,244,0.02960205078125,-0.17156982421875,-0.408447265625,0.89599609375,-0.234375,-0.83154296875,0.62109375,10.5625,-33.5,-0.1875
0,131,245,73,56,114,314,280,251,0.0272216796875,-0.16424560546875,-0.40594482421875,0.8985595703125,-0.19482421875,-0.693359375,0.6748046875,12.625,-40.875,1.0625
0,129,226,58,53,113,291,266,250,0.02557373046875,-0.1566162109375,-0.40643310546875,0.8997802734375,-0.150390625,-0.66357421875,0.646484375,-4.625,-38.9375,-5.375
0,111,190,57,52,103,290,247,189,0.0250244140625,-0.1494140625,-0.41278076171875,0.89813232421875,-0.15380859375,-0.7236328125,0.61669921875,-37.625,-33.8125,-15.25
0,106,283,54,46,101,301,230,152,0.025390625,-0.1427001953125,-0.4229736328125,0.89447021484375,-0.1875,-0.869140625,0.57666015625,-54.0625,-30.6875,-22.9375
0,96,335,55,43,97,293,206,139,0.02545166015625,-0.13555908203125,-0.430419921875,0.89202880859375,-0.1943359375,-0.89599609375,0.595703125,-38.125,-34.25,-20.8125
0,54,425,52,50,81,284,194,107,0.02484130859375,-0.1285400390625,-0.4337158203125,0.8914794921875,-0.18798828125,-0.84326171875,0.5849609375,-14.75,-36.8125,-15.0625
0,46,425,56,49,67,258,155,72,0.02362060546875,-0.121826171875,-0.43560791015625,0.89154052734375,-0.19970703125,-0.79296875,0.55712890625,-7.125,-38.25,-11.6875
0,44,426,61,52,64,231,131,51,0.02239990234375,-0.11541748046875,-0.4381103515625,0.89117431640625,-0.20458984375,-0.78564453125,0.56689453125,-12.625,-36.9375,-12.4375
0,44,365,69,56,59,186,99,45,0.02227783203125,-0.109130859375,-0.4423828125,0.889892578125,-0.19970703125,-0.791015625,0.56201171875,-22.9375,-33.5625,-19.75
0,45,308,67,59,54,124,87,36,0.02313232421875,-0.1029052734375,-0.447265625,0.88812255859375,-0.19384765625,-0.82666015625,0.55615234375,-25.8125,-30.75,-24.8125
0,46,99,64,64,55,115,75,37,0.024169921875,-0.0966796875,-0.45001220703125,0.887451171875,-0.1630859375,-0.787109375,0.56591796875,-14.5,-29.625,-24.0
0,45,89,61,64,54,95,66,33,0.02569580078125,-0.091552734375,-0.4505615234375,0.88763427734375,-0.12890625,-0.724609375,0.56396484375,-3.25,-22.125,-21.5
0,50,89,78,69,56,86,60,35,0.02728271484375,-0.087646484375,-0.4508056640625,0.88787841796875,-0.12109375,-0.67822265625,0.58251953125,-4.5,-15.3125,-19.0
0,54,87,74,179,101,86,50,32,0.0294189453125,-0.0850830078125,-0.45147705078125,0.8876953125,-0.1611328125,-0.677734375,0.56689453125,-7.25,-9.0625,-20.8125
0,53,84,100,363,163,78,49,34,0.031982421875,-0.08355712890625,-0.45361328125,0.88671875,-0.18115234375,-0.728515625,0.56396484375,-14.5,-3.5,-22.6875
0,62,114,121,383,167,74,45,32,0.03472900390625,-0.0823974609375,-0.4554443359375,0.8857421875,-0.16796875,-0.77294921875,0.5634765625,-11.5625,-1.1875,-21.3125
0,66,116,128,389,171,68,43,37,0.03717041015625,-0.08111572265625,-0.45538330078125,0.88580322265625,-0.16455078125,-0.78515625,0.58349609375,0.125,-2.0625,-19.125
0,65,114,147,390,169,65,42,36,0.0377197265625,-0.07977294921875,-0.4541015625,0.88653564453125,-0.14697265625,-0.685546875,0.59619140625,2.5625,-7.125,-9.0625
0,64,138,237,382,163,68,48,43,0.03741455078125,-0.0787353515625,-0.45391845703125,0.88677978515625,-0.14501953125,-0.69775390625,0.60009765625,-4.25,-7.5625,-4.0
0,69,148,278,221,108,66,51,45,0.03759765625,-0.07794189453125,-0.452880859375,0.8873291015625,-0.15771484375,-0.71875,0.5849609375,2.75,-5.75,-6.1875
0,75,242,347,207,104,65,48,46,0.03802490234375,-0.07720947265625,-0.4521484375,0.88775634765625,-0.16064453125,-0.76904296875,0.5869140625,2.8125,-4.75,-7.1875
0,84,271,361,222,112,73,51,45,0.03887939453125,-0.076416015625,-0.44879150390625,0.88946533203125,-0.1474609375,-0.7197265625,0.615234375,16.875,-3.625,-7.8125
0,91,290,360,233,122,144,75,50,0.03997802734375,-0.075439453125,-0.447021484375,0.89044189453125,-0.13818359375,-0.740234375,0.58984375,9.4375,-3.875,-9.9375
0,90,293,449,206,116,149,75,47,0.04010009765625,-0.07427978515625,-0.44329833984375,0.892333984375,-0.10107421875,-0.61572265625,0.640625,14.125,-5.4375,-2.8125
0,87,309,453,242,133,238,134,51,0.03985595703125,-0.07373046875,-0.44061279296875,0.893798828125,-0.10693359375,-0.72216796875,0.6474609375,11.9375,-3.5625,0.0625
0,77,243,406,228,135,274,148,88,0.03887939453125,-0.07342529296875,-0.43768310546875,0.895263671875,-0.14111328125,-0.7353515625,0.67529296875,12.125,-5.4375,3.1875
0,64,221,410,210,126,300,165,108,0.03704833984375,-0.07318115234375,-0.4320068359375,0.89813232421875,-0.125,-0.64697265625,0.66748046875,26.75,-6.6875,9.1875
0,52,195,407,196,118,293,170,113,0.03436279296875,-0.07330322265625,-0.42828369140625,0.89996337890625,-0.1337890625,-0.658203125,0.6552734375,15.5,-6.9375,13.5625
0,49,171,244,172,106,320,208,116,0.03240966796875,-0.0736083984375,-0.42718505859375,0.90057373046875,-0.14794921875,-0.74365234375,0.67529296875,2.1875,-5.1875,8.8125
0,65,130,177,107,75,290,197,127,0.03118896484375,-0.0736083984375,-0.4263916015625,0.9010009765625,-0.15625,-0.794921875,0.65771484375,3.625,-4.75,3.9375
0,66,111,166,88,66,288,208,138,0.02978515625,-0.07275390625,-0.425048828125,0.9017333984375,-0.1318359375,-0.751953125,0.65625,6.0,-9.0,4.5
0,66,87,124,67,64,271,202,134,0.02801513671875,-0.0712890625,-0.42364501953125,0.90252685546875,-0.11669921875,-0.73974609375,0.6494140625,6.3125,-12.1875,5.3125
0,69,78,103,64,63,268,193,138,0.027099609375,-0.0692138671875,-0.423583984375,0.90277099609375,-0.07861328125,-0.76220703125,0.6298828125,0.875,-12.125,1.0
0,80,67,93,54,55,231,153,179,0.0272216796875,-0.06671142578125,-0.423583984375,0.9029541015625,-0.052734375,-0.77490234375,0.625,1.3125,-10.75,-4.375
0,87,75,91,45,54,212,161,209,0.02801513671875,-0.06390380859375,-0.42144775390625,0.9041748046875,-0.04541015625,-0.72509765625,0.6435546875,12.5625,-10.8125,-7.8125
0,88,72,91,54,52,178,142,191,0.02874755859375,-0.06134033203125,-0.41766357421875,0.90606689453125,-0.0166015625,-0.64599609375,0.63916015625,19.6875,-8.5,-5.0
0,94,107,93,56,53,171,141,195,0.03057861328125,-0.06005859375,-0.41717529296875,0.90631103515625,-0.00439453125,-0.701171875,0.6171875,2.9375,1.375,-8.6875
0,103,110,94,53,49,151,143,234,0.03302001953125,-0.06036376953125,-0.4188232421875,0.90545654296875,-0.09619140625,-0.875,0.59375,-2.4375,6.4375,-12.9375
0,103,130,97,52,53,171,144,211,0.0343017578125,-0.06072998046875,-0.4158935546875,0.90673828125,-0.10693359375,-0.83349609375,0.638671875,22.5,3.75,-5.4375
0,86,138,99,51,52,148,108,176,0.0333251953125,-0.0618896484375,-0.40966796875,0.90948486328125,-0.078125,-0.677734375,0.62548828125,36.6875,4.0625,10.5
0,84,133,93,41,47,154,104,176,0.03167724609375,-0.06475830078125,-0.40594482421875,0.9110107421875,-0.14501953125,-0.650390625,0.59814453125,20.6875,8.4375,13.4375
0,77,119,82,35,45,153,96,168,0.03070068359375,-0.06793212890625,-0.40399169921875,0.91168212890625,-0.203125,-0.70068359375,0.5986328125,12.375,9.0,7.625
0,75,143,87,36,50,173,97,162,0.03033447265625,-0.070068359375,-0.401611328125,0.91259765625,-0.18603515625,-0.744140625,0.611328125,17.0,6.0,3.6875
0,77,197,99,38,50,170,89,165,0.0302734375,-0.0706787109375,-0.39501953125,0.91546630859375,-0.1220703125,-0.68798828125,0.6689453125,39.625,2.3125,3.875
0,76,199,116,42,53,171,82,166,0.029541015625,-0.0714111328125,-0.38397216796875,0.92010498046875,-0.0634765625,-0.58544921875,0.68115234375,62.625,4.0,12.0
0,76,278,116,40,56,159,70,169,0.02783203125,-0.07403564453125,-0.37347412109375,0.92425537109375,-0.078125,-0.525390625,0.6337890625,58.375,11.5,20.125
0,78,303,119,42,56,147,67,164,0.02593994140625,-0.0780029296875,-0.36541748046875,0.92718505859375,-0.11181640625,-0.58203125,0.658203125,45.5625,17.25,22.125
0,69,308,129,42,50,108,62,102,0.02392578125,-0.083251953125,-0.3565673828125,0.93023681640625,-0.09912109375,-0.61572265625,0.67529296875,51.5,24.9375,27.3125
0,60,300,160,45,48,77,58,81,0.02099609375,-0.08935546875,-0.345703125,0.933837890625,-0.0517578125,-0.58837890625,0.69873046875,62.0,31.25,37.8125
0,59,302,160,50,51,68,53,72,0.01605224609375,-0.09613037109375,-0.33245849609375,0.93804931640625,-0.005859375,-0.44921875,0.71826171875,68.0625,33.75,52.5625
0,63,308,181,52,51,58,54,61,0.00946044921875,-0.1053466796875,-0.3201904296875,0.94140625,-0.05859375,-0.423828125,0.7314453125,59.5625,42.8125,63.1875
0,72,300,200,53,53,56,51,66,0.00341796875,-0.11663818359375,-0.30877685546875,0.94390869140625,-0.1171875,-0.39794921875,0.79296875,51.125,54.3125,61.875
0,68,334,200,53,57,57,38,60,-0.002197265625,-0.12823486328125,-0.29962158203125,0.94537353515625,-0.2060546875,-0.3681640625,0.83544921875,35.1875,54.9375,55.3125
0,66,379,177,64,71,56,38,57,-0.008056640625,-0.139404296875,-0.2928466796875,0.94586181640625,-0.25439453125,-0.43310546875,0.85791015625,24.125,52.0,54.0625
0,66,420,189,59,70,47,38,56,-0.0146484375,-0.14947509765625,-0.28875732421875,0.94549560546875,-0.25830078125,-0.5087890625,0.8154296875,13.75,45.875,56.625
0,65,419,197,61,70,50,41,55,-0.0220947265625,-0.1588134765625,-0.2841796875,0.94525146484375,-0.32373046875,-0.4912109375,0.8427734375,14.75,38.625,58.25
0,51,447,240,66,71,45,41,47,-0.02899169921875,-0.16717529296875,-0.278564453125,0.9453125,-0.3701171875,-0.47705078125,0.8095703125,21.9375,31.625,53.9375
0,58,468,289,73,79,41,42,46,-0.03509521484375,-0.1746826171875,-0.27252197265625,0.94549560546875,-0.39404296875,-0.43212890625,0.78857421875,24.5625,27.0625,47.3125
0,58,475,316,68,91,38,43,45,-0.0401611328125,-0.1812744140625,-0.266357421875,0.94580078125,-0.40478515625,-0.4814453125,0.82080078125,28.75,24.8125,42.0625
0,60,461,356,84,103,37,44,47,-0.0435791015625,-0.18756103515625,-0.26141357421875,0.94580078125,-0.4111328125,-0.51318359375,0.78955078125,26.5625,25.75,33.1875
0,59,481,382,173,137,39,42,46,-0.04669189453125,-0.19427490234375,-0.25494384765625,0.946044921875,-0.43310546875,-0.4287109375,0.75634765625,33.0625,26.3125,31.3125
0,67,498,520,199,151,51,46,49,-0.0501708984375,-0.20025634765625,-0.2503662109375,0.94586181640625,-0.42919921875,-0.35986328125,0.8046875,16.75,25.4375,29.25
0,64,513,602,211,218,70,47,45,-0.05352783203125,-0.20562744140625,-0.2508544921875,0.94439697265625,-0.43408203125,-0.40869140625,0.80517578125,-10.0,25.4375,23.9375
0,70,518,778,245,218,71,48,45,-0.05584716796875,-0.21014404296875,-0.25390625,0.94244384765625,-0.45654296875,-0.48876953125,0.79296875,-19.125,22.9375,15.8125
0,77,563,878,299,228,75,47,41,-0.05743408203125,-0.21282958984375,-0.2547607421875,0.9415283203125,-0.4873046875,-0.4921875,0.84619140625,-7.5,12.25,11.125
0,79,560,929,298,225,73,45,40,-0.0592041015625,-0.21185302734375,-0.25244140625,0.9422607421875,-0.486328125,-0.43603515625,0.8779296875,7.1875,-9.75,8.375
0,79,534,900,288,224,69,41,38,-0.0615234375,-0.208251953125,-0.25067138671875,0.943359375,-0.421875,-0.474609375,0.82421875,7.5625,-23.4375,9.875
0,84,491,886,294,167,51,37,41,-0.0635986328125,-0.202880859375,-0.24957275390625,0.9447021484375,-0.4248046875,-0.46630859375,0.8232421875,3.5,-34.0625,4.6875
0,78,432,737,339,200,69,39,41,-0.0650634765625,-0.19659423828125,-0.2476806640625,0.94647216796875,-0.40966796875,-0.4365234375,0.82958984375,7.5,-38.3125,0.0
0,70,356,657,327,224,79,44,41,-0.0654296875,-0.18994140625,-0.2471923828125,0.9478759765625,-0.3759765625,-0.44140625,0.7802734375,2.375,-38.1875,-7.125
0,65,287,590,335,244,81,46,43,-0.0655517578125,-0.18328857421875,-0.248046875,0.948974609375,-0.3759765625,-0.42529296875,0.8046875,-6.875,-36.8125,-10.3125
0,57,260,516,380,255,86,49,42,-0.06475830078125,-0.17730712890625,-0.25042724609375,0.94952392578125,-0.3857421875,-0.515625,0.80224609375,-9.75,-32.4375,-14.6875
0,53,261,454,376,270,97,52,41,-0.06390380859375,-0.171142578125,-0.25115966796875,0.9505615234375,-0.42724609375,-0.544921875,0.849609375,0.25,-36.1875,-14.5
0,52,263,495,360,247,86,50,40,-0.06170654296875,-0.16485595703125,-0.249267578125,0.9522705078125,-0.365234375,-0.5146484375,0.79345703125,16.875,-35.6875,-19.0
0,50,263,458,359,259,86,47,37,-0.05877685546875,-0.15838623046875,-0.24688720703125,0.95416259765625,-0.3466796875,-0.45263671875,0.78857421875,17.1875,-35.4375,-24.1875
0,55,283,481,344,242,88,45,37,-0.055419921875,-0.15216064453125,-0.24566650390625,0.9556884765625,-0.3623046875,-0.4501953125,0.814453125,10.25,-34.0625,-28.25
0,59,303,567,308,232,83,41,35,-0.05169677734375,-0.145263671875,-0.244873046875,0.95721435546875,-0.34326171875,-0.47998046875,0.85791015625,8.3125,-36.0625,-30.375
0,54,286,609,305,238,85,42,38,-0.04705810546875,-0.13787841796875,-0.2432861328125,0.95892333984375,-0.29150390625,-0.54736328125,0.83251953125,18.5625,-36.3125,-33.5
0,57,301,607,252,237,85,41,38,-0.04144287109375,-0.13043212890625,-0.23883056640625,0.96136474609375,-0.25439453125,-0.4755859375,0.826171875,32.9375,-35.8125,-37.375
0,62,391,582,228,202,74,40,39,-0.0362548828125,-0.123046875,-0.23480224609375,0.9635009765625,-0.23095703125,-0.392578125,0.81689453125,25.1875,-35.6875,-36.375
0,60,389,616,215,215,76,43,39,-0.0311279296875,-0.1162109375,-0.2332763671875,0.96490478515625,-0.181640625,-0.38671875,0.79248046875,11.4375,-30.0,-36.0625
0,59,377,558,196,212,78,44,39,-0.02642822265625,-0.10980224609375,-0.233642578125,0.9656982421875,-0.14990234375,-0.4072265625,0.7763671875,1.4375,-26.375,-32.9375
0,63,414,528,201,187,61,40,35,-0.02276611328125,-0.104248046875,-0.23406982421875,0.96630859375,-0.18115234375,-0.4345703125,0.7958984375,1.4375,-25.4375,-27.1875
0,61,420,507,197,189,61,40,34,-0.02001953125,-0.09906005859375,-0.23358154296875,0.967041015625,-0.12841796875,-0.4140625,0.751953125,6.25,-22.75,-20.375
0,55,354,500,179,172,62,39,33,-0.01788330078125,-0.09442138671875,-0.233642578125,0.967529296875,-0.09423828125,-0.38818359375,0.73779296875,1.3125,-19.25,-15.875
0,58,364,430,146,145,55,37,33,-0.01708984375,-0.0911865234375,-0.23602294921875,0.96728515625,-0.1142578125,-0.392578125,0.7373046875,-12.6875,-13.625,-8.75
0,53,349,411,129,138,50,38,32,-0.01654052734375,-0.0897216796875,-0.24005126953125,0.9664306640625,-0.111328125,-0.412109375,0.7509765625,-22.6875,-3.75,-5.4375
0,51,296,351,103,124,49,38,36,-0.016357421875,-0.08984375,-0.24566650390625,0.96502685546875,-0.11083984375,-0.45751953125,0.73876953125,-29.8125,4.6875,-1.3125
0,63,274,345,100,109,204,97,71,-0.0174560546875,-0.091552734375,-0.2518310546875,0.9632568359375,-0.15283203125,-0.49365234375,0.73583984375,-32.3125,9.8125,6.6875
0,64,227,350,91,102,257,130,113,-0.01953125,-0.093994140625,-0.25823974609375,0.9613037109375,-0.17578125,-0.5185546875,0.73193359375,-33.3125,11.375,12.5
0,64,193,313,88,78,327,150,132,-0.02203369140625,-0.09722900390625,-0.26361083984375,0.95947265625,-0.22509765625,-0.54248046875,0.78369140625,-29.0625,13.3125,15.5625
0,73,187,279,80,67,332,155,143,-0.02386474609375,-0.100830078125,-0.26806640625,0.95782470703125,-0.20654296875,-0.537109375,0.78515625,-24.0,17.75,13.4375
0,72,211,323,83,65,454,217,145,-0.02520751953125,-0.105224609375,-0.272216796875,0.95611572265625,-0.14404296875,-0.5322265625,0.7626953125,-22.3125,26.625,14.6875
0,65,194,286,77,55,443,223,160,-0.026611328125,-0.11151123046875,-0.27587890625,0.954345703125,-0.14501953125,-0.42333984375,0.7548828125,-25.8125,37.6875,17.0
0,72,198,247,58,50,422,221,143,-0.0284423828125,-0.1207275390625,-0.28289794921875,0.9510498046875,-0.154296875,-0.4462890625,0.67724609375,-43.3125,53.5,22.5625
0,72,192,227,53,50,385,211,138,-0.03125,-0.131591796875,-0.29229736328125,0.94671630859375,-0.19384765625,-0.552734375,0.68310546875,-53.75,61.125,29.9375
0,64,198,227,51,53,422,237,130,-0.03631591796875,-0.1431884765625,-0.29876708984375,0.94281005859375,-0.24609375,-0.64306640625,0.69677734375,-35.0625,59.625,46.125
0,74,187,155,43,46,308,195,135,-0.04248046875,-0.15570068359375,-0.301025390625,0.93988037109375,-0.2294921875,-0.56689453125,0.630859375,-13.75,61.375,57.1875
0,88,238,149,49,52,301,221,172,-0.04986572265625,-0.1705322265625,-0.30072021484375,0.93701171875,-0.24560546875,-0.40869140625,0.6455078125,-9.375,72.4375,66.75
0,84,249,151,49,55,310,340,222,-0.05828857421875,-0.18701171875,-0.30169677734375,0.93304443359375,-0.28662109375,-0.42919921875,0.69482421875,-19.5625,81.75,74.625
0,90,240,143,49,52,312,364,225,-0.06719970703125,-0.20440673828125,-0.30908203125,0.9263916015625,-0.33251953125,-0.62841796875,0.63525390625,-46.8125,89.25,77.5625
0,94,249,133,50,60,290,362,230,-0.07684326171875,-0.22149658203125,-0.3167724609375,0.9190673828125,-0.51220703125,-0.73486328125,0.6962890625,-48.9375,82.1875,78.9375
0,86,232,100,49,63,280,369,243,-0.087158203125,-0.23785400390625,-0.32000732421875,0.91290283203125,-0.53759765625,-0.5712890625,0.6611328125,-31.9375,73.625,81.6875
0,74,195,89,45,61,258,349,258,-0.09722900390625,-0.25341796875,-0.32098388671875,0.9073486328125,-0.53759765625,-0.38623046875,0.6181640625,-26.625,68.75,76.875
0,90,244,105,43,67,300,263,254,-0.10809326171875,-0.26849365234375,-0.32733154296875,0.89947509765625,-0.611328125,-0.3994140625,0.59814453125,-59.375,68.75,72.3125
0,144,278,106,44,70,314,291,318,-0.1195068359375,-0.281982421875,-0.3409423828125,0.8887939453125,-0.69775390625,-0.5576171875,0.53515625,-95.9375,65.0,66.25
0,190,293,116,44,65,319,318,364,-0.12896728515625,-0.29345703125,-0.3551025390625,0.878173828125,-0.77001953125,-0.76171875,0.50634765625,-88.6875,57.25,57.75
0,227,316,118,45,67,350,323,443,-0.13507080078125,-0.30316162109375,-0.3607177734375,0.87158203125,-0.7509765625,-0.8515625,0.5234375,-31.5,45.5,54.375
0,290,334,121,43,67,358,348,596,-0.1395263671875,-0.3118896484375,-0.35821533203125,0.868896484375,-0.68603515625,-0.76171875,0.5302734375,15.3125,34.5625,55.1875
0,500,339,126,47,59,322,341,660,-0.1435546875,-0.3197021484375,-0.3505859375,0.86846923828125,-0.6640625,-0.619140625,0.60107421875,38.5,27.3125,54.375
0,588,332,137,49,57,292,320,674,-0.14691162109375,-0.32586669921875,-0.34283447265625,0.86871337890625,-0.65234375,-0.5263671875,0.640625,35.8125,21.75,44.8125
0,674,400,136,49,57,324,311,699,-0.15045166015625,-0.33172607421875,-0.33795166015625,0.8677978515625,-0.59423828125,-0.44921875,0.62548828125,16.75,26.5,40.1875
0,729,443,145,50,53,317,315,705,-0.15631103515625,-0.33697509765625,-0.34075927734375,0.8636474609375,-0.64697265625,-0.3837890625,0.5439453125,-32.5625,26.8125,34.25
0,724,476,137,47,52,323,299,599,-0.16143798828125,-0.34027099609375,-0.3499755859375,0.85772705078125,-0.69873046875,-0.62890625,0.53369140625,-59.625,26.4375,25.6875
0,620,458,114,41,53,315,288,545,-0.16375732421875,-0.3426513671875,-0.35540771484375,0.85406494140625,-0.755859375,-0.77392578125,0.4912109375,-25.4375,16.375,21.0
0,539,444,98,40,74,322,267,553,-0.1651611328125,-0.34417724609375,-0.35406494140625,0.853759765625,-0.7333984375,-0.71728515625,0.5234375,12.3125,3.25,23.125
0,427,384,94,38,78,254,225,509,-0.16583251953125,-0.345458984375,-0.349609375,0.85491943359375,-0.6962890625,-0.59375,0.521484375,28.0,-0.9375,19.375
0,302,309,114,34,80,206,184,432,-0.16632080078125,-0.34619140625,-0.34576416015625,0.85614013671875,-0.6748046875,-0.52685546875,0.54931640625,21.9375,-0.75,13.9375
0,264,229,114,33,90,145,143,378,-0.1669921875,-0.34649658203125,-0.34246826171875,0.857177734375,-0.6552734375,-0.5078125,0.55712890625,17.25,-1.5625,12.8125
0,204,210,116,35,126,126,103,328,-0.16876220703125,-0.3463134765625,-0.34185791015625,0.857177734375,-0.66064453125,-0.45751953125,0.568359375,-2.5,-1.125,10.375
0,160,208,170,165,156,110,50,197,-0.17108154296875,-0.34613037109375,-0.34619140625,0.85504150390625,-0.68017578125,-0.521484375,0.509765625,-28.4375,3.6875,8.0625
0,104,169,200,185,166,97,41,133,-0.17315673828125,-0.34619140625,-0.35260009765625,0.85198974609375,-0.7099609375,-0.57470703125,0.484375,-37.0,7.375,5.1875
0,90,177,325,193,201,101,41,103,-0.1737060546875,-0.3458251953125,-0.358642578125,0.8494873046875,-0.69677734375,-0.6455078125,0.47705078125,-29.8125,7.0625,0.875
0,64,174,477,323,296,101,40,79,-0.1727294921875,-0.34442138671875,-0.3614501953125,0.84906005859375,-0.68505859375,-0.64697265625,0.5283203125,-9.4375,1.1875,-4.5
0,54,166,538,338,291,102,40,59,-0.17120361328125,-0.34381103515625,-0.3619384765625,0.84942626953125,-0.6572265625,-0.59033203125,0.4951171875,4.25,1.5,-3.5625
0,47,206,606,303,273,95,40,49,-0.17022705078125,-0.34283447265625,-0.36138916015625,0.8502197265625,-0.66015625,-0.541015625,0.521484375,5.9375,-2.4375,-2.625
0,43,227,782,297,269,91,43,42,-0.1690673828125,-0.34185791015625,-0.360595703125,0.8511962890625,-0.669921875,-0.51171875,0.54833984375,6.1875,-1.75,-5.4375
0,43,236,804,310,250,85,39,40,-0.16827392578125,-0.34014892578125,-0.36004638671875,0.852294921875,-0.69482421875,-0.49609375,0.55908203125,3.25,-6.875,-7.5
0,44,231,760,205,139,80,40,40,-0.16766357421875,-0.33770751953125,-0.36224365234375,0.8524169921875,-0.681640625,-0.5478515625,0.55810546875,-11.8125,-5.875,-9.6875
0,44,225,807,193,145,75,41,38,-0.166259765625,-0.3341064453125,-0.36444091796875,0.8531494140625,-0.6650390625,-0.583984375,0.576171875,-9.875,-9.875,-14.6875
0,50,210,788,216,165,72,45,38,-0.16412353515625,-0.3299560546875,-0.3642578125,0.85528564453125,-0.6552734375,-0.52099609375,0.5771484375,3.375,-16.1875,-19.625
0,48,205,669,259,171,72,40,36,-0.1629638671875,-0.325439453125,-0.36285400390625,0.85784912109375,-0.63427734375,-0.5107421875,0.61376953125,6.9375,-20.0625,-13.75
0,48,208,620,370,200,72,41,36,-0.1622314453125,-0.32012939453125,-0.3599853515625,0.86114501953125,-0.67919921875,-0.52734375,0.640625,13.75,-29.0,-12.1875
0,54,233,730,423,250,77,43,38,-0.16290283203125,-0.3138427734375,-0.35589599609375,0.86505126953125,-0.71337890625,-0.498046875,0.64892578125,16.9375,-40.6875,-8.4375
0,59,253,764,438,241,77,42,38,-0.1636962890625,-0.3074951171875,-0.3519287109375,0.8687744140625,-0.6904296875,-0.47705078125,0.59619140625,17.25,-43.4375,-8.6875
0,60,267,796,435,243,74,38,37,-0.16644287109375,-0.3009033203125,-0.3514404296875,0.87078857421875,-0.7060546875,-0.4609375,0.595703125,-7.4375,-44.0,-5.1875
0,68,279,767,426,248,77,40,40,-0.170166015625,-0.2933349609375,-0.3541259765625,0.87152099609375,-0.7353515625,-0.443359375,0.61572265625,-29.875,-46.75,-9.4375
0,75,289,773,342,248,80,42,40,-0.17449951171875,-0.2847900390625,-0.3599853515625,0.87115478515625,-0.72314453125,-0.52978515625,0.63427734375,-47.5625,-46.8125,-8.8125
0,72,305,686,265,200,70,38,37,-0.17962646484375,-0.27532958984375,-0.3653564453125,0.87091064453125,-0.70166015625,-0.4736328125,0.6279296875,-49.625,-53.8125,-8.75
0,73,304,571,238,200,72,40,40,-0.18377685546875,-0.2664794921875,-0.369384765625,0.87109375,-0.638671875,-0.36767578125,0.56201171875,-41.625,-51.5625,-13.3125
0,83,438,483,241,182,80,47,47,-0.18804931640625,-0.2581787109375,-0.3768310546875,0.8695068359375,-0.58349609375,-0.4150390625,0.509765625,-58.875,-43.1875,-11.6875
0,102,498,559,215,168,77,50,54,-0.19256591796875,-0.25048828125,-0.3837890625,0.86767578125,-0.56884765625,-0.43701171875,0.5703125,-58.6875,-37.75,-7.4375
0,107,570,596,189,127,72,51,59,-0.1961669921875,-0.24420166015625,-0.3883056640625,0.86669921875,-0.57666015625,-0.54150390625,0.55029296875,-36.9375,-33.9375,-2.875
0,116,672,543,177,107,72,54,70,-0.19873046875,-0.23992919921875,-0.38848876953125,0.8671875,-0.59716796875,-0.5009765625,0.50927734375,-8.5,-31.625,-1.75
0,116,683,521,173,110,70,57,73,-0.2017822265625,-0.2369384765625,-0.3868408203125,0.8680419921875,-0.587890625,-0.33837890625,0.54248046875,-5.6875,-27.3125,-0.75
0,111,746,547,164,112,59,54,74,-0.203857421875,-0.234619140625,-0.3878173828125,0.8677978515625,-0.55419921875,-0.33251953125,0.46728515625,-15.9375,-19.1875,-4.9375
0,98,771,441,157,113,59,56,75,-0.2044677734375,-0.2322998046875,-0.392822265625,0.865966796875,-0.57177734375,-0.42041015625,0.45166015625,-33.875,-10.1875,-13.5
0,98,730,344,206,145,62,57,74,-0.20556640625,-0.23077392578125,-0.3984375,0.86358642578125,-0.6259765625,-0.5146484375,0.5166015625,-37.1875,-5.25,-8.625
0,90,638,330,203,138,56,53,63,-0.20538330078125,-0.2291259765625,-0.39996337890625,0.86334228515625,-0.64208984375,-0.65234375,0.57861328125,-7.9375,-8.9375,-7.75
0,91,658,325,221,137,57,50,60,-0.20379638671875,-0.228759765625,-0.39404296875,0.86651611328125,-0.603515625,-0.5078125,0.56787109375,35.5,-11.875,-9.8125
0,92,492,297,208,131,62,51,55,-0.20233154296875,-0.2286376953125,-0.38995361328125,0.8687744140625,-0.583984375,-0.41552734375,0.57470703125,20.8125,-6.5625,-12.5625
0,90,404,312,210,126,60,48,47,-0.2005615234375,-0.22796630859375,-0.389892578125,0.869384765625,-0.61279296875,-0.4990234375,0.58056640625,-0.0625,-3.25,-16.9375
0,79,387,317,164,99,61,43,42,-0.19830322265625,-0.22625732421875,-0.38909912109375,0.87066650390625,-0.59375,-0.5537109375,0.62841796875,5.0,-6.75,-18.875
0,77,366,343,158,99,62,42,43,-0.19561767578125,-0.22381591796875,-0.3865966796875,0.873046875,-0.5625,-0.568359375,0.6484375,15.6875,-11.25,-19.875
0,71,298,353,125,95,64,40,40,-0.19232177734375,-0.22100830078125,-0.38427734375,0.87548828125,-0.521484375,-0.537109375,0.6083984375,15.6875,-11.875,-23.9375
0,61,269,324,117,97,75,39,37,-0.18896484375,-0.2177734375,-0.38360595703125,0.8773193359375,-0.4853515625,-0.55517578125,0.6015625,7.0625,-10.375,-24.75
0,49,270,332,108,99,161,93,35,-0.185302734375,-0.21435546875,-0.3837890625,0.87884521484375,-0.4619140625,-0.625,0.5712890625,6.25,-10.0625,-24.25
0,51,397,365,85,83,248,159,42,-0.1827392578125,-0.2113037109375,-0.38134765625,0.88116455078125,-0.45166015625,-0.60205078125,0.5947265625,18.375,-13.5,-16.375
0,54,473,345,94,113,401,231,52,-0.18072509765625,-0.20831298828125,-0.37548828125,0.88482666015625,-0.439453125,-0.58154296875,0.68017578125,34.625,-16.6875,-11.375
0,51,470,312,86,108,510,277,53,-0.1768798828125,-0.20574951171875,-0.36785888671875,0.889404296875,-0.44091796875,-0.64892578125,0.63525390625,53.625,-15.9375,-16.0625
0,53,481,304,93,113,638,354,65,-0.17156982421875,-0.2027587890625,-0.3577880859375,0.89520263671875,-0.42724609375,-0.59912109375,0.666015625,68.125,-18.3125,-23.6875
0,61,458,304,110,155,777,545,88,-0.167236328125,-0.2000732421875,-0.3468017578125,0.90093994140625,-0.42578125,-0.490234375,0.67333984375,67.4375,-20.0,-21.125
0,64,339,243,123,185,941,646,122,-0.16448974609375,-0.19659423828125,-0.33721923828125,0.9058837890625,-0.4287109375,-0.3935546875,0.72314453125,50.5,-24.5625,-18.3125
0,60,205,232,115,175,974,679,125,-0.1622314453125,-0.18658447265625,-0.32379150390625,0.91326904296875,-0.43798828125,-0.5048828125,0.84228515625,25.25,-33.5625,-13.4375
0,66,190,239,126,183,1008,721,130,-0.1585693359375,-0.1788330078125,-0.3214111328125,0.916259765625,-0.41259765625,-0.7041015625,0.79248046875,21.0625,-36.75,-27.875
0,66,159,239,137,180,949,710,127,-0.15289306640625,-0.1705322265625,-0.3155517578125,0.92083740234375,-0.392578125,-0.58837890625,0.7373046875,40.5,-42.1875,-40.875
0,69,145,194,132,156,855,582,117,-0.14691162109375,-0.16290283203125,-0.31219482421875,0.92431640625,-0.2802734375,-0.44775390625,0.6689453125,22.125,-32.125,-43.1875
0,66,116,203,124,119,654,456,77,-0.14178466796875,-0.15557861328125,-0.31610107421875,0.925048828125,-0.27490234375,-0.423828125,0.72119140625,-25.9375,-22.625,-43.875
0,71,119,208,128,119,542,384,69,-0.13525390625,-0.1495361328125,-0.32147216796875,0.9251708984375,-0.3115234375,-0.54052734375,0.71337890625,-26.75,-14.0,-48.9375
0,66,119,202,126,114,491,375,63,-0.1268310546875,-0.1435546875,-0.3255615234375,0.9259033203125,-0.310546875,-0.65087890625,0.69091796875,-11.125,-13.0,-55.8125
0,72,122,203,122,123,521,371,62,-0.11932373046875,-0.1383056640625,-0.322998046875,0.9285888671875,-0.33642578125,-0.48046875,0.75439453125,16.4375,-18.0625,-51.6875
0,65,110,190,116,137,531,399,65,-0.1129150390625,-0.13226318359375,-0.320068359375,0.9312744140625,-0.25244140625,-0.37548828125,0.74169921875,11.8125,-21.375,-46.75
0,71,119,169,120,137,551,418,66,-0.10711669921875,-0.12518310546875,-0.32330322265625,0.93182373046875,-0.25634765625,-0.41455078125,0.78271484375,-25.875,-22.5,-48.1875
0,72,111,186,144,140,547,416,67,-0.099609375,-0.11859130859375,-0.32867431640625,0.931640625,-0.22119140625,-0.5283203125,0.7587890625,-30.875,-14.1875,-54.75
0,76,120,197,143,136,465,338,66,-0.0916748046875,-0.11163330078125,-0.33349609375,0.931640625,-0.2109375,-0.51318359375,0.7841796875,-30.5,-15.9375,-57.8125
0,68,110,186,142,136,426,310,65,-0.083984375,-0.10418701171875,-0.338623046875,0.93133544921875,-0.15966796875,-0.47998046875,0.74462890625,-33.9375,-17.125,-57.1875
0,66,109,183,139,108,364,259,52,-0.0770263671875,-0.09600830078125,-0.34722900390625,0.9296875,-0.11962890625,-0.54443359375,0.7451171875,-53.4375,-19.25,-53.875
0,57,90,164,133,109,371,228,49,-0.07025146484375,-0.08770751953125,-0.3555908203125,0.9278564453125,-0.109375,-0.61279296875,0.76171875,-51.25,-20.0,-52.1875
0,55,93,124,104,99,360,231,46,-0.06268310546875,-0.07989501953125,-0.3609619140625,0.927001953125,-0.07958984375,-0.61083984375,0.724609375,-32.0625,-17.9375,-53.875
0,57,82,124,105,103,335,208,45,-0.054443359375,-0.072265625,-0.3663330078125,0.92608642578125,-0.0849609375,-0.642578125,0.689453125,-29.4375,-17.0,-57.8125
0,63,92,136,92,89,339,191,45,-0.0460205078125,-0.0650634765625,-0.37017822265625,0.925537109375,-0.068359375,-0.6376953125,0.67041015625,-20.25,-15.1875,-57.8125
0,63,93,146,98,107,355,194,47,-0.03802490234375,-0.05828857421875,-0.37286376953125,0.92523193359375,-0.044921875,-0.58984375,0.6552734375,-15.75,-14.3125,-54.1875
0,65,101,150,90,107,319,191,47,-0.02984619140625,-0.052001953125,-0.376708984375,0.92437744140625,-0.04443359375,-0.5966796875,0.62890625,-21.8125,-11.75,-55.125
0,64,109,169,103,107,318,162,46,-0.0216064453125,-0.04608154296875,-0.3809814453125,0.92315673828125,-0.03857421875,-0.59375,0.63671875,-25.625,-9.5625,-55.375
0,62,108,165,107,109,341,157,47,-0.0125732421875,-0.040771484375,-0.3856201171875,0.921630859375,-0.01611328125,-0.5986328125,0.63525390625,-28.4375,-4.5,-57.6875
0,63,107,159,110,112,304,153,46,-0.0029296875,-0.03564453125,-0.39031982421875,0.91998291015625,0.00244140625,-0.56787109375,0.64697265625,-31.5625,-1.8125,-60.375
0,72,112,153,107,97,312,154,49,0.00653076171875,-0.03094482421875,-0.39654541015625,0.91748046875,0.0234375,-0.572265625,0.666015625,-43.1875,0.6875,-58.4375
0,79,134,168,109,89,289,135,48,0.015869140625,-0.026611328125,-0.4044189453125,0.91400146484375,0.0126953125,-0.65283203125,0.671875,-51.8125,0.9375,-58.3125
0,90,146,176,105,87,273,142,53,0.02545166015625,-0.0224609375,-0.4117431640625,0.91064453125,-0.00390625,-0.7333984375,0.69482421875,-46.875,0.9375,-60.25
0,98,154,171,103,92,258,142,51,0.0355224609375,-0.01837158203125,-0.4161376953125,0.908447265625,0.033203125,-0.6962890625,0.70458984375,-31.8125,3.875,-61.4375
0,99,154,194,121,104,263,141,49,0.04595947265625,-0.014892578125,-0.42108154296875,0.90570068359375,0.03466796875,-0.646484375,0.70703125,-39.4375,7.0625,-62.1875
0,104,160,193,159,138,308,191,58,0.05670166015625,-0.0120849609375,-0.42901611328125,0.90142822265625,-0.0126953125,-0.72607421875,0.7138671875,-56.3125,7.75,-66.5625
0,107,157,188,163,140,316,199,62,0.06732177734375,-0.00909423828125,-0.43682861328125,0.89697265625,-0.01513671875,-0.87744140625,0.75537109375,-53.5,5.5,-67.5625
0,103,151,228,163,138,324,201,59,0.0760498046875,-0.00628662109375,-0.44244384765625,0.8935546875,0.033203125,-0.9189453125,0.712890625,-36.125,4.0,-55.25
0,102,150,238,161,142,341,261,65,0.082275390625,-0.00384521484375,-0.445068359375,0.89166259765625,0.01123046875,-0.82177734375,0.71484375,-22.0625,-0.4375,-42.25
0,103,150,224,150,131,336,256,67,0.0889892578125,-0.0013427734375,-0.44781494140625,0.88970947265625,-0.0009765625,-0.81201171875,0.68798828125,-22.1875,-1.0,-46.0625
0,92,142,225,118,106,272,214,56,0.095458984375,0.00091552734375,-0.450927734375,0.88739013671875,0.04345703125,-0.88427734375,0.66943359375,-21.5625,1.3125,-42.875
0,89,133,218,116,105,267,210,55,0.1002197265625,0.00164794921875,-0.4534912109375,0.88555908203125,0.03125,-0.91015625,0.640625,-15.875,4.0625,-31.625
0,93,136,183,110,109,249,204,54,0.10302734375,0.00054931640625,-0.4573974609375,0.88323974609375,-0.05615234375,-0.90380859375,0.5947265625,-23.25,4.1875,-22.0625
0,90,139,178,113,117,188,108,47,0.10406494140625,-0.0013427734375,-0.46148681640625,0.8809814453125,-0.0830078125,-0.900390625,0.57861328125,-24.75,2.75,-12.1875
0,119,172,238,162,142,173,105,56,0.10455322265625,-0.0030517578125,-0.46514892578125,0.8790283203125,-0.10888671875,-0.81982421875,0.54150390625,-23.4375,-0.3125,-10.625
0,119,177,244,261,175,145,97,59,0.10540771484375,-0.00360107421875,-0.46826171875,0.87725830078125,-0.08935546875,-0.77490234375,0.5107421875,-19.6875,-3.625,-14.125
0,115,176,250,273,186,243,143,62,0.10528564453125,-0.0040283203125,-0.47314453125,0.8746337890625,-0.10205078125,-0.8408203125,0.49267578125,-27.6875,-8.1875,-11.4375
0,108,165,232,280,191,246,141,62,0.10479736328125,-0.00323486328125,-0.4769287109375,0.87261962890625,-0.08544921875,-0.802734375,0.47900390625,-21.3125,-14.3125,-11.375
0,111,167,229,281,182,241,139,60,0.103759765625,-0.00146484375,-0.48046875,0.870849609375,-0.0234375,-0.82080078125,0.458984375,-17.75,-17.6875,-7.6875
0,77,129,178,257,168,256,141,53,0.1026611328125,0.0003662109375,-0.4847412109375,0.86859130859375,-0.02099609375,-0.8486328125,0.435546875,-20.375,-18.6875,-8.1875
0,74,120,165,149,122,258,140,50,0.10064697265625,0.0029296875,-0.4888916015625,0.86651611328125,0.04296875,-0.8935546875,0.4521484375,-19.125,-22.625,-2.5
0,76,104,147,119,99,156,91,80,0.09716796875,0.00494384765625,-0.492431640625,0.8648681640625,0.04833984375,-0.93798828125,0.4423828125,-13.3125,-23.25,7.0
0,78,112,157,93,81,147,90,82,0.09210205078125,0.00616455078125,-0.49359130859375,0.86474609375,0.046875,-0.91455078125,0.44140625,1.0,-22.5,17.8125
0,84,92,139,74,66,138,84,146,0.08612060546875,0.00579833984375,-0.4952392578125,0.86444091796875,0.06884765625,-0.88134765625,0.40966796875,-2.0,-16.375,28.75
0,92,91,108,58,53,98,80,157,0.07891845703125,0.0035400390625,-0.49822998046875,0.8634033203125,0.02001953125,-0.9375,0.38671875,-8.8125,-12.125,37.3125
0,105,136,122,49,50,73,69,171,0.07073974609375,0.0003662109375,-0.49932861328125,0.863525390625,-0.0048828125,-0.94677734375,0.4345703125,0.5625,-10.5,44.375
0,134,212,163,51,50,65,58,231,0.06219482421875,-0.00482177734375,-0.49945068359375,0.86407470703125,-0.01171875,-0.93798828125,0.41064453125,6.875,-1.0,53.25
0,148,306,148,54,59,61,69,263,0.0538330078125,-0.01177978515625,-0.50164794921875,0.86328125,-0.06201171875,-0.8818359375,0.341796875,-5.9375,7.25,54.9375
0,167,496,167,61,60,60,78,291,0.04498291015625,-0.0198974609375,-0.50750732421875,0.8602294921875,-0.08056640625,-0.98291015625,0.36767578125,-30.1875,9.875,60.1875
0,171,534,189,73,60,59,90,342,0.0352783203125,-0.028076171875,-0.5118408203125,0.85791015625,-0.09423828125,-1.01171875,0.4013671875,-22.1875,8.5,65.1875
0,194,556,227,77,58,61,96,367,0.0252685546875,-0.03558349609375,-0.512451171875,0.85760498046875,-0.0771484375,-0.97021484375,0.35302734375,3.125,5.75,68.875
0,190,640,232,76,57,57,96,336,0.01678466796875,-0.04302978515625,-0.5103759765625,0.85870361328125,-0.0751953125,-0.93017578125,0.365234375,19.1875,10.8125,63.0625
0,208,681,255,86,58,61,97,336,0.0093994140625,-0.04974365234375,-0.5106201171875,0.85833740234375,-0.10009765625,-0.83984375,0.2998046875,4.75,9.9375,53.9375
0,220,671,261,89,61,63,91,306,0.00201416015625,-0.0562744140625,-0.50970458984375,0.85845947265625,-0.0712890625,-0.890625,0.3564453125,10.0625,10.3125,57.375
0,250,786,251,81,57,57,84,294,-0.00921630859375,-0.0648193359375,-0.50555419921875,0.86029052734375,-0.11083984375,-0.9326171875,0.31201171875,34.3125,8.0,82.75
0,260,903,229,88,69,62,109,337,-0.021240234375,-0.07373046875,-0.49951171875,0.8629150390625,-0.2080078125,-0.8994140625,0.2705078125,48.1875,3.5625,83.75
0,263,872,210,96,76,65,122,363,-0.031494140625,-0.0810546875,-0.49658203125,0.86358642578125,-0.2333984375,-0.9169921875,0.3125,26.1875,2.125,69.6875
0,244,860,180,86,69,57,115,347,-0.03955078125,-0.0858154296875,-0.4954833984375,0.86346435546875,-0.2109375,-0.9033203125,0.36279296875,11.875,-1.9375,53.375
0,217,787,154,77,67,59,114,333,-0.04833984375,-0.0904541015625,-0.49169921875,0.86468505859375,-0.1787109375,-0.88330078125,0.37353515625,27.875,-4.3125,60.4375
0,176,659,143,75,77,185,153,292,-0.05865478515625,-0.09368896484375,-0.48785400390625,0.86590576171875,-0.17138671875,-0.7529296875,0.384765625,22.25,-15.0625,63.4375
0,133,541,113,67,71,207,142,197,-0.069580078125,-0.0960693359375,-0.48760986328125,0.864990234375,-0.16552734375,-0.77392578125,0.4755859375,-6.8125,-16.375,64.125
0,100,480,85,57,70,213,135,117,-0.07879638671875,-0.0970458984375,-0.492431640625,0.861328125,-0.20849609375,-0.94970703125,0.392578125,-28.6875,-17.5,51.3125
0,92,392,87,87,93,226,146,96,-0.08563232421875,-0.09576416015625,-0.4979248046875,0.857666015625,-0.24951171875,-0.98583984375,0.38623046875,-31.0,-22.5625,31.625
0,87,384,99,90,99,233,148,85,-0.092041015625,-0.09246826171875,-0.503173828125,0.85430908203125,-0.193359375,-1.04248046875,0.36669921875,-27.25,-30.125,27.625
0,77,503,119,91,90,162,101,69,-0.0994873046875,-0.08831787109375,-0.50457763671875,0.85308837890625,-0.16552734375,-0.921875,0.43896484375,-11.75,-37.9375,30.8125
0,58,511,138,100,93,135,95,45,-0.1080322265625,-0.0841064453125,-0.5035400390625,0.85302734375,-0.12451171875,-0.8505859375,0.49267578125,-2.4375,-41.5625,37.75
0,56,558,158,110,113,138,102,34,-0.11529541015625,-0.0791015625,-0.50408935546875,0.85223388671875,-0.09423828125,-0.79736328125,0.498046875,-14.25,-39.1875,29.875
0,50,585,177,117,99,120,88,34,-0.12042236328125,-0.07354736328125,-0.5089111328125,0.84918212890625,-0.12744140625,-0.87109375,0.47705078125,-38.25,-33.25,16.3125
0,48,606,221,125,95,111,86,32,-0.1243896484375,-0.06768798828125,-0.514404296875,0.84576416015625,-0.115234375,-0.9599609375,0.50048828125,-41.3125,-29.9375,11.625
0,47,497,219,128,109,101,85,34,-0.12725830078125,-0.0618896484375,-0.51690673828125,0.84423828125,-0.10693359375,-0.99853515625,0.49267578125,-19.4375,-29.1875,7.0625
0,47,386,219,125,106,94,74,31,-0.130615234375,-0.05645751953125,-0.51605224609375,0.84466552734375,-0.0927734375,-0.90625,0.51953125,-1.75,-31.8125,9.125
0,56,313,211,129,85,72,54,34,-0.1334228515625,-0.05126953125,-0.51226806640625,0.84686279296875,-0.0595703125,-0.76611328125,0.533203125,13.25,-30.5625,6.5
0,61,247,355,238,130,69,53,41,-0.13458251953125,-0.0477294921875,-0.51055908203125,0.847900390625,-0.068359375,-0.833984375,0.57470703125,1.375,-15.5,3.5
0,65,159,344,247,134,58,49,43,-0.135498046875,-0.04498291015625,-0.51214599609375,0.846923828125,-0.14208984375,-0.82177734375,0.4921875,-15.375,-12.0625,0.4375
0,68,146,360,254,130,55,46,42,-0.136474609375,-0.04254150390625,-0.51641845703125,0.84429931640625,-0.17431640625,-0.921875,0.5126953125,-31.6875,-8.5625,2.0
0,71,144,465,279,158,63,47,46,-0.1396484375,-0.04034423828125,-0.51806640625,0.8428955078125,-0.15185546875,-0.73046875,0.5908203125,-26.9375,-14.375,11.0625
0,78,147,501,385,176,76,51,50,-0.13995361328125,-0.03875732421875,-0.5208740234375,0.8411865234375,-0.11962890625,-0.79345703125,0.48681640625,-24.3125,-2.75,1.875
0,78,145,429,360,170,72,48,45,-0.1417236328125,-0.03778076171875,-0.52386474609375,0.839111328125,-0.2099609375,-0.79931640625,0.5107421875,-27.625,-6.125,5.6875
0,85,167,455,354,169,74,55,48,-0.14208984375,-0.0361328125,-0.52545166015625,0.83807373046875,-0.234375,-0.94873046875,0.5009765625,-13.375,-7.625,-3.0625
0,94,176,490,379,182,85,62,52,-0.145263671875,-0.03375244140625,-0.52435302734375,0.83831787109375,-0.18212890625,-0.8642578125,0.52587890625,-1.4375,-20.0,9.4375
0,99,178,387,368,162,80,62,55,-0.14630126953125,-0.0302734375,-0.52508544921875,0.83782958984375,-0.1201171875,-0.9482421875,0.439453125,-5.1875,-16.3125,1.0625
0,91,159,344,255,144,74,60,56,-0.14764404296875,-0.02667236328125,-0.5252685546875,0.83758544921875,-0.1240234375,-0.8994140625,0.45068359375,-4.5625,-18.8125,0.9375
0,100,174,335,202,116,79,60,57,-0.151123046875,-0.02264404296875,-0.524169921875,0.8377685546875,-0.095703125,-0.8662109375,0.4384765625,2.4375,-27.75,10.8125
0,97,161,346,200,116,76,55,54,-0.15283203125,-0.0167236328125,-0.52325439453125,0.83819580078125,0.00830078125,-0.9677734375,0.42822265625,4.5,-28.625,3.3125
0,89,148,304,161,89,64,43,50,-0.1529541015625,-0.01214599609375,-0.522216796875,0.8388671875,-0.052734375,-0.9453125,0.40576171875,8.25,-19.75,-5.0
0,88,155,324,150,85,67,46,50,-0.1534423828125,-0.0076904296875,-0.520751953125,0.83978271484375,-0.1025390625,-0.87646484375,0.44091796875,7.0,-22.25,-7.25
0,102,178,383,146,80,66,48,52,-0.15264892578125,-0.0028076171875,-0.51959228515625,0.84063720703125,-0.0419921875,-0.85107421875,0.4462890625,3.875,-18.3125,-11.875
0,96,169,371,137,72,58,44,51,-0.1533203125,0.0006103515625,-0.51873779296875,0.841064453125,-0.06689453125,-0.79638671875,0.4462890625,0.9375,-16.625,-2.8125
0,91,161,312,138,74,61,44,48,-0.15533447265625,0.00396728515625,-0.518798828125,0.84063720703125,-0.115234375,-0.8447265625,0.49560546875,-7.8125,-20.4375,2.375
0,91,164,305,98,64,54,44,47,-0.1563720703125,0.00738525390625,-0.51873779296875,0.8404541015625,-0.12939453125,-0.98486328125,0.51171875,-2.75,-18.5,-2.8125
0,85,151,287,91,64,51,38,40,-0.15704345703125,0.00933837890625,-0.51470947265625,0.8427734375,-0.09130859375,-0.845703125,0.5146484375,21.0,-12.6875,-1.625
0,65,116,193,73,59,40,29,29,-0.158935546875,0.0098876953125,-0.51239013671875,0.8438720703125,-0.0771484375,-0.7509765625,0.54541015625,5.5625,-7.4375,9.3125
0,57,103,269,73,60,40,30,30,-0.1605224609375,0.009521484375,-0.5142822265625,0.8424072265625,-0.1201171875,-0.90478515625,0.5712890625,-17.9375,1.0,12.3125
0,54,97,282,64,43,34,25,30,-0.1627197265625,0.00750732421875,-0.5147705078125,0.8416748046875,-0.12353515625,-0.9638671875,0.56591796875,-5.3125,5.5,20.125
0,48,80,271,63,41,34,25,31,-0.16461181640625,0.00408935546875,-0.51239013671875,0.84283447265625,-0.0576171875,-0.84228515625,0.55615234375,12.25,13.1875,24.25
0,47,113,322,51,33,31,24,32,-0.16650390625,-0.001220703125,-0.51116943359375,0.84320068359375,-0.0927734375,-0.748046875,0.54833984375,3.875,22.25,27.625
0,48,126,358,55,37,39,29,35,-0.167724609375,-0.0069580078125,-0.512939453125,0.84185791015625,-0.130859375,-0.876953125,0.505859375,-8.5,28.0,27.4375
0,42,126,300,47,36,91,56,32,-0.168701171875,-0.012451171875,-0.5128173828125,0.8416748046875,-0.1416015625,-0.921875,0.49755859375,5.9375,25.75,25.0625
0,42,122,283,41,46,153,97,37,-0.1693115234375,-0.01812744140625,-0.51043701171875,0.8428955078125,-0.0849609375,-0.84814453125,0.4658203125,20.875,27.0625,25.5
0,44,230,268,42,47,162,102,41,-0.17138671875,-0.02557373046875,-0.50628662109375,0.84478759765625,-0.08642578125,-0.68115234375,0.43994140625,29.875,29.1875,35.75
0,48,299,247,42,56,165,105,46,-0.17596435546875,-0.03515625,-0.50177001953125,0.84619140625,-0.1474609375,-0.6982421875,0.48095703125,30.3125,31.0625,51.9375
0,58,343,286,61,61,167,107,45,-0.17913818359375,-0.04461669921875,-0.499267578125,0.8465576171875,-0.19140625,-0.818359375,0.392578125,27.75,34.6875,46.0625
0,76,385,379,80,65,148,98,48,-0.1810302734375,-0.05352783203125,-0.4974365234375,0.8466796875,-0.2646484375,-0.88232421875,0.39306640625,26.4375,33.9375,36.6875
0,84,413,499,94,66,87,62,48,-0.1839599609375,-0.06280517578125,-0.4942626953125,0.8472900390625,-0.2802734375,-0.78515625,0.466796875,26.6875,32.75,40.6875
0,91,420,674,172,109,77,58,47,-0.1871337890625,-0.07330322265625,-0.492919921875,0.8465576171875,-0.28466796875,-0.81787109375,0.44970703125,17.8125,40.4375,47.625
0,99,443,801,230,132,73,54,45,-0.1873779296875,-0.08380126953125,-0.49432373046875,0.84466552734375,-0.35400390625,-0.82763671875,0.4169921875,4.3125,49.75,31.25
0,95,442,884,413,212,82,58,52,-0.18536376953125,-0.0933837890625,-0.4970703125,0.842529296875,-0.37109375,-0.86083984375,0.4658203125,-4.875,54.3125,18.125
0,89,441,898,724,426,111,71,63,-0.1812744140625,-0.10296630859375,-0.4986572265625,0.84136962890625,-0.357421875,-0.8974609375,0.42626953125,7.625,58.9375,9.875
0,92,479,880,750,447,112,71,63,-0.179443359375,-0.11419677734375,-0.49761962890625,0.8409423828125,-0.42236328125,-0.728515625,0.3837890625,19.5625,54.3125,19.875
0,96,458,806,760,448,111,72,69,-0.17926025390625,-0.12542724609375,-0.49713134765625,0.83966064453125,-0.5322265625,-0.78515625,0.4384765625,11.875,49.125,24.3125
0,88,397,678,761,452,116,75,67,-0.17791748046875,-0.1358642578125,-0.49566650390625,0.83917236328125,-0.583984375,-0.8857421875,0.43505859375,22.625,46.0,17.75
0,88,363,531,687,424,278,185,71,-0.176513671875,-0.14605712890625,-0.4910888671875,0.8404541015625,-0.58837890625,-0.7685546875,0.416015625,40.1875,39.75,14.875
0,83,324,446,356,217,289,186,59,-0.175537109375,-0.1549072265625,-0.48712158203125,0.84136962890625,-0.60205078125,-0.716796875,0.42333984375,32.5625,33.4375,11.875
0,73,223,372,309,175,336,202,58,-0.17352294921875,-0.16131591796875,-0.48516845703125,0.8416748046875,-0.55126953125,-0.8359375,0.4248046875,23.875,28.8125,5.9375
0,54,160,251,258,151,363,233,49,-0.17266845703125,-0.1671142578125,-0.4810791015625,0.84307861328125,-0.56884765625,-0.81396484375,0.46923828125,32.9375,20.5625,9.875
0,52,123,207,207,118,428,253,52,-0.17327880859375,-0.1722412109375,-0.47503662109375,0.8453369140625,-0.5712890625,-0.787109375,0.48193359375,41.75,10.8125,15.6875
0,46,112,203,174,101,362,200,40,-0.17431640625,-0.17626953125,-0.46820068359375,0.84814453125,-0.54638671875,-0.736328125,0.4736328125,45.1875,3.3125,15.625
0,41,113,182,138,84,406,220,41,-0.17547607421875,-0.1787109375,-0.46246337890625,0.85052490234375,-0.53173828125,-0.6826171875,0.474609375,35.625,-3.0625,10.8125
0,43,117,139,101,68,431,247,66,-0.17694091796875,-0.17987060546875,-0.45831298828125,0.85223388671875,-0.5595703125,-0.60595703125,0.51416015625,20.1875,-7.3125,4.3125
0,49,159,115,72,66,451,264,137,-0.17828369140625,-0.17962646484375,-0.4554443359375,0.853515625,-0.55078125,-0.63330078125,0.5791015625,9.875,-9.9375,1.0
0,47,158,109,60,70,408,262,140,-0.17864990234375,-0.178955078125,-0.45233154296875,0.855224609375,-0.52001953125,-0.6845703125,0.59228515625,14.4375,-9.125,-2.3125
0,50,155,58,57,77,453,285,143,-0.17901611328125,-0.17791748046875,-0.447509765625,0.85791015625,-0.4736328125,-0.68408203125,0.5966796875,25.4375,-11.875,0.3125
0,51,140,58,56,88,427,283,147,-0.1790771484375,-0.17755126953125,-0.4407958984375,0.8614501953125,-0.42138671875,-0.611328125,0.61328125,35.125,-8.8125,1.8125
0,46,140,49,46,89,379,272,139,-0.178955078125,-0.1778564453125,-0.43505859375,0.86431884765625,-0.3837890625,-0.599609375,0.57568359375,31.625,-3.4375,4.0
0,41,106,56,40,85,365,266,81,-0.17816162109375,-0.17791748046875,-0.43023681640625,0.86688232421875,-0.3681640625,-0.595703125,0.57373046875,27.1875,-1.25,0.3125
0,36,155,66,39,83,365,264,77,-0.1763916015625,-0.1778564453125,-0.4259033203125,0.869384765625,-0.37109375,-0.61962890625,0.58642578125,26.375,1.0625,-4.9375
0,39,233,64,39,78,333,276,76,-0.174072265625,-0.17718505859375,-0.42059326171875,0.87255859375,-0.38623046875,-0.69873046875,0.60888671875,35.6875,-2.8125,-7.0
0,40,249,61,36,62,375,290,76,-0.1708984375,-0.17694091796875,-0.412109375,0.87725830078125,-0.37451171875,-0.70751953125,0.611328125,57.875,-3.1875,-7.3125
0,44,257,68,38,59,389,292,79,-0.1673583984375,-0.17706298828125,-0.3997802734375,0.8836669921875,-0.36083984375,-0.65673828125,0.6298828125,80.625,-5.625,-6.9375
0,46,270,63,37,57,363,265,71,-0.16351318359375,-0.17742919921875,-0.3865966796875,0.89013671875,-0.375,-0.58203125,0.62255859375,84.25,-5.75,-10.125
0,50,288,67,45,90,444,288,92,-0.1595458984375,-0.17791748046875,-0.37677001953125,0.89495849609375,-0.345703125,-0.53515625,0.5947265625,64.1875,-0.625,-12.1875
0,65,268,76,45,94,470,268,156,-0.15423583984375,-0.17864990234375,-0.37030029296875,0.8984375,-0.34033203125,-0.53515625,0.61181640625,45.4375,8.625,-20.625
0,84,304,77,46,91,429,251,168,-0.14739990234375,-0.17889404296875,-0.3677978515625,0.90057373046875,-0.3564453125,-0.60693359375,0.57666015625,28.1875,12.25,-30.625
0,97,336,87,47,95,449,241,174,-0.1407470703125,-0.17974853515625,-0.36541748046875,0.90240478515625,-0.35546875,-0.615234375,0.54736328125,28.9375,14.0,-28.5625
0,102,359,85,51,101,479,241,208,-0.13433837890625,-0.1817626953125,-0.36187744140625,0.9044189453125,-0.3447265625,-0.5859375,0.54638671875,35.25,19.3125,-24.1875
0,102,362,76,42,71,391,197,203,-0.12701416015625,-0.1851806640625,-0.35821533203125,0.90618896484375,-0.41455078125,-0.53076171875,0.55615234375,34.3125,24.9375,-30.125
0,91,336,66,44,81,328,162,159,-0.11895751953125,-0.18865966796875,-0.35516357421875,0.90777587890625,-0.427734375,-0.57275390625,0.5302734375,35.125,26.125,-33.5
0,74,295,64,42,88,310,135,147,-0.11175537109375,-0.19140625,-0.3526611328125,0.90911865234375,-0.4169921875,-0.51904296875,0.56298828125,26.1875,23.0625,-32.1875
0,54,247,43,44,90,245,104,138,-0.10467529296875,-0.1929931640625,-0.35345458984375,0.9093017578125,-0.38623046875,-0.51904296875,0.5546875,6.1875,20.875,-35.4375
0,39,187,39,48,94,158,83,77,-0.097412109375,-0.1944580078125,-0.357177734375,0.9083251953125,-0.375,-0.53662109375,0.5654296875,-11.5,25.0,-38.75
0,34,93,65,86,111,145,78,67,-0.08984375,-0.1956787109375,-0.36199951171875,0.906982421875,-0.36083984375,-0.53662109375,0.58984375,-19.875,26.375,-41.3125
0,32,100,80,119,111,116,67,59,-0.0821533203125,-0.197021484375,-0.3685302734375,0.90478515625,-0.34033203125,-0.53271484375,0.5927734375,-30.9375,30.8125,-43.0
0,36,101,188,138,109,95,58,49,-0.07379150390625,-0.19842529296875,-0.37615966796875,0.90203857421875,-0.35302734375,-0.56298828125,0.61572265625,-38.25,33.5,-47.5625
0,39,141,276,142,109,71,43,40,-0.0638427734375,-0.2001953125,-0.38385009765625,0.899169921875,-0.3466796875,-0.6279296875,0.64208984375,-36.5,40.375,-53.4375
0,43,149,332,284,168,77,44,38,-0.052490234375,-0.2022705078125,-0.3902587890625,0.89666748046875,-0.36669921875,-0.6884765625,0.61328125,-24.1875,42.5,-58.375
0,45,164,341,301,166,73,41,35,-0.039794921875,-0.20416259765625,-0.39324951171875,0.89556884765625,-0.33447265625,-0.650390625,0.638671875,-5.625,44.0,-62.125
0,46,155,348,328,174,67,42,33,-0.0260009765625,-0.20623779296875,-0.395263671875,0.89471435546875,-0.31689453125,-0.650390625,0.6259765625,1.3125,46.6875,-66.0625
0,52,169,397,358,187,63,43,36,-0.0115966796875,-0.20867919921875,-0.39691162109375,0.89373779296875,-0.3349609375,-0.6376953125,0.66357421875,0.4375,50.5,-69.5625
0,55,154,397,366,188,58,41,37,0.0042724609375,-0.21124267578125,-0.39715576171875,0.89306640625,-0.33056640625,-0.65478515625,0.67431640625,10.1875,54.0,-74.9375
0,55,166,456,316,158,45,36,33,0.0203857421875,-0.21417236328125,-0.397705078125,0.89190673828125,-0.35009765625,-0.7099609375,0.6630859375,9.8125,55.4375,-76.0625
0,61,233,599,300,162,48,36,33,0.03790283203125,-0.2159423828125,-0.39581298828125,0.89178466796875,-0.333984375,-0.64306640625,0.68603515625,22.5625,52.75,-84.0625
0,66,260,715,311,176,57,38,38,0.05712890625,-0.21856689453125,-0.39459228515625,0.89068603515625,-0.32177734375,-0.74658203125,0.63134765625,25.9375,60.375,-89.25
0,75,404,702,422,209,69,49,55,0.0782470703125,-0.22119140625,-0.39288330078125,0.88916015625,-0.31884765625,-0.72509765625,0.64404296875,27.875,65.4375,-99.875
0,89,458,719,563,297,75,49,59,0.102294921875,-0.22406005859375,-0.388427734375,0.887939453125,-0.33203125,-0.671875,0.65185546875,47.875,72.5625,-111.5
0,126,605,759,676,373,99,57,69,0.1263427734375,-0.23046875,-0.386962890625,0.8837890625,-0.38720703125,-0.86376953125,0.5908203125,26.3125,91.4375,-109.0625
0,139,593,714,764,411,108,59,77,0.1439208984375,-0.23980712890625,-0.38385009765625,0.8800048828125,-0.642578125,-0.89453125,0.705078125,23.625,82.1875,-81.375
0,149,607,627,796,426,104,58,81,0.15625,-0.24896240234375,-0.37640380859375,0.87860107421875,-0.7431640625,-0.95947265625,0.62841796875,50.9375,64.5,-50.25
0,143,552,610,736,412,95,48,69,0.168212890625,-0.253173828125,-0.3663330078125,0.87939453125,-0.5771484375,-0.83203125,0.5888671875,70.6875,43.6875,-47.125
0,132,537,563,633,356,95,49,66,0.1802978515625,-0.25677490234375,-0.35992431640625,0.87860107421875,-0.494140625,-0.71728515625,0.52392578125,48.4375,41.375,-54.0
0,96,368,443,488,272,106,48,57,0.189697265625,-0.260986328125,-0.3582763671875,0.8760986328125,-0.44140625,-0.63720703125,0.5234375,12.6875,39.0,-47.0625
0,71,350,334,329,212,232,120,46,0.198974609375,-0.26507568359375,-0.35968017578125,0.8721923828125,-0.35107421875,-0.6826171875,0.42724609375,1.375,38.5,-47.4375
0,37,313,289,179,164,343,193,36,0.20770263671875,-0.26873779296875,-0.36187744140625,0.8681640625,-0.3271484375,-0.71533203125,0.37744140625,-0.375,34.5,-45.1875
0,31,249,265,133,156,425,217,35,0.21356201171875,-0.27215576171875,-0.36376953125,0.8648681640625,-0.34375,-0.703125,0.3603515625,-1.1875,25.875,-31.4375
0,31,163,255,110,188,460,231,34,0.21807861328125,-0.27520751953125,-0.3656005859375,0.86199951171875,-0.34521484375,-0.77099609375,0.37939453125,-0.3125,21.0,-23.4375
0,32,140,206,97,180,473,256,36,0.22161865234375,-0.27783203125,-0.36614990234375,0.86004638671875,-0.361328125,-0.791015625,0.3935546875,6.6875,16.625,-17.0
0,31,149,214,80,182,498,237,34,0.2242431640625,-0.27886962890625,-0.36492919921875,0.8594970703125,-0.3720703125,-0.75390625,0.490234375,12.5,8.875,-12.625
0,38,153,247,67,195,475,225,35,0.2269287109375,-0.27972412109375,-0.36480712890625,0.85858154296875,-0.34521484375,-0.76806640625,0.50048828125,6.375,8.4375,-13.625
0,37,150,230,68,190,423,230,38,0.2303466796875,-0.28082275390625,-0.36602783203125,0.8568115234375,-0.3134765625,-0.87353515625,0.5107421875,2.4375,12.375,-16.5625
0,39,176,226,62,148,399,226,37,0.2335205078125,-0.283203125,-0.36834716796875,0.8541259765625,-0.32666015625,-0.95751953125,0.4462890625,-0.75,16.25,-14.0625
0,42,214,246,69,159,397,209,39,0.23638916015625,-0.28466796875,-0.3671875,0.8533935546875,-0.34228515625,-0.931640625,0.52197265625,16.0,13.5625,-8.1875
0,48,247,259,92,156,310,217,38,0.2396240234375,-0.28619384765625,-0.36370849609375,0.85345458984375,-0.27734375,-0.90771484375,0.4296875,34.0,17.3125,-1.875
0,46,242,219,90,136,305,210,45,0.2442626953125,-0.28900146484375,-0.35980224609375,0.85284423828125,-0.28125,-0.88623046875,0.37255859375,37.625,26.4375,-6.375
0,46,260,216,87,130,295,190,44,0.24969482421875,-0.292724609375,-0.35504150390625,0.85198974609375,-0.3544921875,-0.74658203125,0.4140625,33.375,32.5,-14.125
0,45,252,209,89,145,309,188,45,0.25506591796875,-0.29608154296875,-0.3482666015625,0.85205078125,-0.3515625,-0.73046875,0.44921875,43.8125,32.75,-9.5625
0,42,220,184,91,150,303,186,41,0.26019287109375,-0.29827880859375,-0.34130859375,0.8525390625,-0.25732421875,-0.798828125,0.484375,48.3125,31.0,-2.9375
0,34,179,143,68,144,371,184,44,0.26513671875,-0.2991943359375,-0.33245849609375,0.85418701171875,-0.27001953125,-0.77880859375,0.53125,59.4375,25.5625,-0.5
0,30,176,101,64,141,366,196,40,0.27032470703125,-0.29998779296875,-0.322509765625,0.8560791015625,-0.28955078125,-0.69775390625,0.53759765625,62.6875,25.875,-1.9375
0,32,180,100,71,162,410,279,43,0.27447509765625,-0.30059814453125,-0.31329345703125,0.85797119140625,-0.34521484375,-0.6708984375,0.62744140625,53.1875,21.75,-1.0625
0,42,215,105,80,186,524,376,83,0.2772216796875,-0.30157470703125,-0.30859375,0.85845947265625,-0.318359375,-0.72802734375,0.66650390625,26.6875,18.3125,-0.8125
0,109,219,117,77,176,613,563,141,0.2794189453125,-0.3017578125,-0.305908203125,0.858642578125,-0.32470703125,-0.8525390625,0.70947265625,20.3125,11.8125,-0.6875
0,171,244,111,80,178,580,597,263,0.28173828125,-0.301025390625,-0.3040771484375,0.8587646484375,-0.37939453125,-0.84716796875,0.68896484375,18.4375,2.75,-7.1875
0,220,328,120,79,176,584,590,393,0.2838134765625,-0.298095703125,-0.3018798828125,0.85992431640625,-0.32568359375,-0.70751953125,0.74755859375,16.625,-5.8125,-8.5
0,236,479,135,77,159,554,560,493,0.28533935546875,-0.29522705078125,-0.3035888671875,0.8597412109375,-0.24951171875,-0.654296875,0.744140625,-7.9375,-7.6875,-12.5625
0,292,489,162,74,119,428,518,552,0.28692626953125,-0.2947998046875,-0.3118896484375,0.8564453125,-0.19873046875,-0.609375,0.6455078125,-48.3125,-1.25,-23.8125
0,425,538,166,79,134,314,360,676,0.28631591796875,-0.2969970703125,-0.32110595703125,0.85247802734375,-0.2421875,-0.54345703125,0.638671875,-65.3125,5.0,-15.3125
0,475,547,161,77,131,314,340,722,0.28363037109375,-0.30340576171875,-0.32952880859375,0.847900390625,-0.27392578125,-0.56494140625,0.48583984375,-66.125,20.0,2.0
0,539,528,153,76,134,272,360,684,0.281982421875,-0.31243896484375,-0.33648681640625,0.8424072265625,-0.4609375,-0.80419921875,0.48681640625,-54.625,31.5,-1.0
0,539,401,141,72,131,256,354,634,0.28424072265625,-0.31976318359375,-0.33935546875,0.83770751953125,-0.56494140625,-1.01025390625,0.49853515625,-16.75,32.9375,-15.1875
0,515,377,101,65,131,265,336,586,0.28875732421875,-0.322265625,-0.3355712890625,0.83673095703125,-0.49853515625,-0.966796875,0.4765625,33.75,20.5,-14.25
0,404,306,100,65,137,222,280,433,0.290771484375,-0.3232421875,-0.32958984375,0.8380126953125,-0.474609375,-0.759765625,0.4853515625,38.6875,8.875,-0.8125
0,319,272,129,68,132,209,223,279,0.2916259765625,-0.32550048828125,-0.32733154296875,0.8377685546875,-0.48583984375,-0.67431640625,0.4697265625,10.875,8.6875,-4.5625
0,139,213,141,71,139,175,161,215,0.29150390625,-0.32867431640625,-0.330810546875,0.83514404296875,-0.4931640625,-0.71533203125,0.43603515625,-21.625,5.5,-12.0625
0,107,189,142,73,143,174,146,158,0.2908935546875,-0.33026123046875,-0.33740234375,0.83209228515625,-0.43896484375,-0.79541015625,0.48828125,-35.9375,-3.875,-15.1875
0,83,180,176,80,139,153,113,131,0.2900390625,-0.32989501953125,-0.34515380859375,0.82940673828125,-0.36962890625,-0.88720703125,0.4794921875,-35.0625,-13.625,-14.0625
0,70,225,216,103,169,145,80,95,0.28857421875,-0.3272705078125,-0.35113525390625,0.82843017578125,-0.32421875,-0.82470703125,0.486328125,-24.0625,-24.125,-9.0625
0,73,212,207,116,175,125,69,69,0.28656005859375,-0.32452392578125,-0.35546875,0.828369140625,-0.283203125,-0.7216796875,0.486328125,-19.1875,-23.5625,-2.8125
0,68,232,201,114,166,122,71,61,0.28436279296875,-0.322509765625,-0.36163330078125,0.82720947265625,-0.283203125,-0.68896484375,0.44482421875,-31.25,-22.1875,-6.5625
0,68,241,199,120,165,153,93,55,0.27740478515625,-0.32110595703125,-0.38079833984375,0.821533203125,-0.2705078125,-0.80078125,0.48486328125,-61.5625,-23.9375,-9.125
0,64,265,171,116,169,187,148,51,0.27398681640625,-0.318603515625,-0.39031982421875,0.8192138671875,-0.25390625,-0.89697265625,0.470703125,-48.0625,-28.8125,-5.8125
0,54,212,106,94,131,180,161,47,0.2705078125,-0.31549072265625,-0.39617919921875,0.8187255859375,-0.26123046875,-0.91259765625,0.47216796875,-26.1875,-29.6875,2.0625
0,41,207,100,93,122,227,174,41,0.26806640625,-0.3115234375,-0.4005126953125,0.81890869140625,-0.244140625,-0.93408203125,0.451171875,-12.4375,-30.0,0.1875
0,43,183,103,105,121,239,176,40,0.26727294921875,-0.30767822265625,-0.40228271484375,0.81982421875,-0.25341796875,-0.91015625,0.46142578125,2.6875,-23.5625,-2.9375
0,41,151,109,104,119,225,174,37,0.26788330078125,-0.30389404296875,-0.40228271484375,0.821044921875,-0.23486328125,-0.87353515625,0.46435546875,12.875,-17.4375,-5.8125
0,44,75,120,105,111,206,144,40,0.26873779296875,-0.3004150390625,-0.4013671875,0.82244873046875,-0.22119140625,-0.79443359375,0.47705078125,14.5,-13.875,-5.5
0,51,90,155,119,81,209,139,44,0.27020263671875,-0.29803466796875,-0.4002685546875,0.8233642578125,-0.1767578125,-0.705078125,0.4228515625,13.875,-5.75,-6.0
0,59,104,196,157,105,246,163,53,0.27301025390625,-0.29766845703125,-0.39996337890625,0.82275390625,-0.16455078125,-0.74169921875,0.4697265625,4.625,9.25,-9.75
0,80,131,201,158,112,254,168,55,0.2763671875,-0.30023193359375,-0.40380859375,0.81878662109375,-0.2392578125,-0.88037109375,0.46337890625,-22.0,21.125,-20.1875
0,85,153,207,163,113,295,169,57,0.2802734375,-0.3021240234375,-0.40838623046875,0.814453125,-0.3515625,-0.87158203125,0.4521484375,-24.625,14.5,-33.0625
0,87,180,203,166,120,301,171,55,0.28192138671875,-0.3013916015625,-0.4122314453125,0.812255859375,-0.26416015625,-0.76953125,0.498046875,-22.875,-2.0625,-21.375
0,86,180,178,157,139,314,190,52,0.28021240234375,-0.30072021484375,-0.41778564453125,0.81024169921875,-0.17138671875,-0.82080078125,0.49658203125,-35.0,-9.4375,-2.125
0,84,176,136,112,135,251,161,43,0.279296875,-0.3001708984375,-0.41998291015625,0.80963134765625,-0.24462890625,-0.94482421875,0.4697265625,-9.3125,-7.125,0.1875
0,64,155,123,101,133,249,156,42,0.27874755859375,-0.29840087890625,-0.41497802734375,0.81304931640625,-0.2783203125,-0.857421875,0.47265625,34.1875,-8.125,11.1875
0,58,141,100,85,130,206,150,42,0.2777099609375,-0.2977294921875,-0.40869140625,0.81683349609375,-0.2744140625,-0.7490234375,0.4716796875,35.625,-3.0,17.6875
0,55,176,101,73,130,188,142,41,0.27685546875,-0.2987060546875,-0.40362548828125,0.81927490234375,-0.314453125,-0.7490234375,0.4814453125,24.5625,4.6875,14.3125
0,50,201,96,64,124,160,110,41,0.27630615234375,-0.30084228515625,-0.40020751953125,0.82037353515625,-0.33837890625,-0.794921875,0.46923828125,14.8125,9.3125,10.8125
0,42,209,73,49,103,152,97,38,0.27587890625,-0.3033447265625,-0.39837646484375,0.8204345703125,-0.35888671875,-0.8349609375,0.4794921875,5.5625,10.1875,6.6875
0,41,211,70,51,99,119,87,40,0.2755126953125,-0.3050537109375,-0.3973388671875,0.8204345703125,-0.33642578125,-0.86279296875,0.4951171875,3.1875,7.0625,4.8125
0,39,227,66,48,102,85,78,54,0.27587890625,-0.305419921875,-0.395263671875,0.8211669921875,-0.31298828125,-0.8642578125,0.5185546875,12.0625,3.8125,3.25
0,41,196,58,48,95,81,57,106,0.27691650390625,-0.30548095703125,-0.39263916015625,0.82208251953125,-0.27880859375,-0.79296875,0.49951171875,15.6875,5.0625,1.3125
0,68,188,91,47,75,62,48,117,0.278564453125,-0.30615234375,-0.3909912109375,0.82208251953125,-0.26416015625,-0.7880859375,0.50244140625,8.8125,10.25,-2.75
0,72,218,102,47,81,53,43,123,0.2803955078125,-0.3076171875,-0.39044189453125,0.82110595703125,-0.28271484375,-0.8115234375,0.4853515625,2.3125,13.3125,-6.0
0,73,228,103,44,100,50,44,129,0.2825927734375,-0.309326171875,-0.389404296875,0.82025146484375,-0.287109375,-0.83447265625,0.51220703125,4.25,16.125,-5.625
0,75,269,107,44,98,46,40,124,0.28466796875,-0.311279296875,-0.38592529296875,0.8204345703125,-0.30810546875,-0.8037109375,0.51708984375,16.5625,18.6875,-0.0625
0,79,282,109,44,94,38,40,94,0.28631591796875,-0.31317138671875,-0.37939453125,0.82220458984375,-0.32421875,-0.7470703125,0.509765625,32.6875,19.0,8.3125
0,78,430,85,45,90,37,37,93,0.28729248046875,-0.3148193359375,-0.370361328125,0.8253173828125,-0.34228515625,-0.7001953125,0.57666015625,42.0625,18.625,16.125
0,96,478,77,47,87,44,49,125,0.286865234375,-0.31817626953125,-0.363525390625,0.82720947265625,-0.38427734375,-0.67919921875,0.5146484375,27.125,20.0625,18.5
0,117,673,101,45,55,43,57,134,0.28570556640625,-0.3211669921875,-0.3582763671875,0.8287353515625,-0.35009765625,-0.6328125,0.61572265625,11.375,18.5625,19.5
0,131,714,110,46,45,42,63,155,0.283935546875,-0.32568359375,-0.35418701171875,0.829345703125,-0.37109375,-0.7080078125,0.5859375,4.5,23.3125,22.8125
0,138,838,124,53,48,42,67,161,0.28143310546875,-0.32928466796875,-0.34918212890625,0.8309326171875,-0.40234375,-0.7529296875,0.5615234375,14.9375,15.8125,28.0
0,128,825,131,54,50,43,69,156,0.27874755859375,-0.3310546875,-0.34033203125,0.83477783203125,-0.39599609375,-0.6357421875,0.56884765625,36.0625,9.0,34.375
0,126,913,133,56,47,41,64,133,0.27447509765625,-0.33245849609375,-0.32958984375,0.83990478515625,-0.400390625,-0.5458984375,0.5830078125,42.5,5.625,45.6875
0,111,812,124,54,46,40,56,121,0.2698974609375,-0.33447265625,-0.3206787109375,0.84405517578125,-0.43994140625,-0.58056640625,0.57373046875,32.8125,5.3125,42.6875
0,97,824,133,57,50,42,51,98,0.26568603515625,-0.33642578125,-0.31402587890625,0.84710693359375,-0.46240234375,-0.60205078125,0.591796875,21.5,3.9375,35.4375
0,90,749,128,51,47,42,44,79,0.26080322265625,-0.33831787109375,-0.31011962890625,0.84930419921875,-0.4453125,-0.634765625,0.623046875,5.4375,2.25,34.375
0,93,788,123,50,46,40,43,73,0.254638671875,-0.34075927734375,-0.30816650390625,0.85089111328125,-0.466796875,-0.65625,0.61962890625,-6.9375,-0.1875,37.0
0,76,661,123,46,46,36,41,59,0.2484130859375,-0.3426513671875,-0.3067626953125,0.85247802734375,-0.49951171875,-0.69091796875,0.62158203125,-7.375,-4.0625,35.4375
0,74,727,120,49,74,41,45,58,0.24273681640625,-0.34332275390625,-0.3050537109375,0.8544921875,-0.49462890625,-0.6572265625,0.63330078125,-4.3125,-8.8125,31.25
0,71,684,95,44,75,38,43,47,0.23797607421875,-0.34326171875,-0.3035888671875,0.8563232421875,-0.47412109375,-0.66943359375,0.6455078125,-2.625,-9.375,26.625
0,65,635,84,44,88,38,40,46,0.23394775390625,-0.3426513671875,-0.30267333984375,0.8580322265625,-0.46240234375,-0.64208984375,0.6708984375,-5.5,-10.0625,21.0
0,60,511,81,41,87,35,38,46,0.23095703125,-0.34185791015625,-0.30255126953125,0.85919189453125,-0.4375,-0.62939453125,0.65869140625,-7.9375,-8.3125,14.125
0,60,502,76,44,91,37,35,46,0.2288818359375,-0.3406982421875,-0.3031005859375,0.86004638671875,-0.41259765625,-0.64453125,0.666015625,-8.9375,-7.9375,8.75
0,51,347,67,60,95,40,33,37,0.22802734375,-0.3392333984375,-0.3033447265625,0.8607177734375,-0.3759765625,-0.60498046875,0.64404296875,-5.875,-5.625,3.125
0,46,291,67,61,98,42,32,31,0.2271728515625,-0.3382568359375,-0.30450439453125,0.8609619140625,-0.3896484375,-0.5849609375,0.6162109375,-10.875,-5.0,0.0
0,40,302,73,63,99,40,31,28,0.226318359375,-0.3369140625,-0.3070068359375,0.86077880859375,-0.369140625,-0.59619140625,0.62548828125,-18.3125,-6.8125,-2.375
0,34,345,138,77,102,54,39,28,0.2254638671875,-0.33544921875,-0.3099365234375,0.86053466796875,-0.359375,-0.56982421875,0.5986328125,-19.9375,-8.4375,-3.9375
0,39,508,150,87,118,70,52,32,0.22467041015625,-0.33477783203125,-0.3133544921875,0.85980224609375,-0.37060546875,-0.58154296875,0.5625,-22.3125,-5.5,-5.25
0,41,521,168,98,125,74,54,31,0.2242431640625,-0.33416748046875,-0.3175048828125,0.85858154296875,-0.39208984375,-0.65771484375,0.61767578125,-26.5,-4.125,-7.75
0,49,628,228,111,130,158,99,37,0.22589111328125,-0.33209228515625,-0.32037353515625,0.85791015625,-0.36767578125,-0.7392578125,0.58837890625,-8.75,-7.0,-14.25
0,51,638,252,114,141,171,112,40,0.2283935546875,-0.3291015625,-0.3201904296875,0.85845947265625,-0.38818359375,-0.759765625,0.63525390625,10.0625,-8.0,-13.4375
0,54,607,235,188,174,173,110,42,0.2325439453125,-0.32415771484375,-0.3145751953125,0.861328125,-0.3466796875,-0.6357421875,0.61767578125,43.625,-11.25,-13.8125
0,55,460,235,205,170,170,113,38,0.236328125,-0.32061767578125,-0.31243896484375,0.86236572265625,-0.37060546875,-0.66455078125,0.65283203125,20.25,-6.6875,-18.9375
0,64,433,242,213,180,172,113,40,0.2398681640625,-0.31610107421875,-0.3104248046875,0.86383056640625,-0.38330078125,-0.5869140625,0.748046875,13.9375,-11.4375,-21.875
0,71,250,236,240,208,107,83,41,0.24542236328125,-0.3106689453125,-0.307861328125,0.8651123046875,-0.33544921875,-0.56201171875,0.7373046875,21.5,-10.375,-31.75
0,90,163,235,241,205,128,83,40,0.2486572265625,-0.30816650390625,-0.31219482421875,0.863525390625,-0.4208984375,-0.56494140625,0.75048828125,-27.0,-8.0625,-36.0
0,95,179,247,195,182,130,86,43,0.25079345703125,-0.3056640625,-0.32342529296875,0.85968017578125,-0.43701171875,-0.5849609375,0.64990234375,-63.0625,-19.9375,-47.3125
0,102,178,250,179,180,128,78,44,0.2540283203125,-0.30560302734375,-0.34149169921875,0.85174560546875,-0.365234375,-0.673828125,0.56396484375,-99.75,-7.5,-61.625
0,99,168,243,167,153,125,79,45,0.25408935546875,-0.30670166015625,-0.3634033203125,0.8421630859375,-0.31884765625,-0.78662109375,0.59814453125,-127.6875,-9.125,-50.0625
0,94,158,207,120,103,124,75,41,0.25457763671875,-0.3043212890625,-0.3770751953125,0.83685302734375,-0.361328125,-1.130859375,0.58935546875,-63.25,-21.4375,-33.75
0,86,142,191,115,87,86,58,42,0.2581787109375,-0.29559326171875,-0.37261962890625,0.84088134765625,-0.30859375,-0.9404296875,0.52001953125,56.8125,-35.3125,-19.4375
0,93,156,201,107,76,76,56,42,0.26202392578125,-0.28668212890625,-0.36468505859375,0.84625244140625,-0.26513671875,-0.64111328125,0.4443359375,71.125,-33.625,-17.125
0,90,159,203,105,68,76,55,42,0.26513671875,-0.28057861328125,-0.36334228515625,0.847900390625,-0.23876953125,-0.548828125,0.46630859375,21.375,-24.25,-25.25
0,89,156,202,91,66,70,51,40,0.26666259765625,-0.27703857421875,-0.368896484375,0.84619140625,-0.25,-0.65771484375,0.48583984375,-22.75,-20.625,-27.1875
0,87,150,200,86,63,68,49,41,0.2679443359375,-0.2733154296875,-0.375244140625,0.84417724609375,-0.21044921875,-0.78125,0.51953125,-24.5,-20.5625,-24.5
0,79,140,194,90,61,65,49,39,0.26849365234375,-0.26898193359375,-0.3782958984375,0.84405517578125,-0.21435546875,-0.74951171875,0.5537109375,-8.125,-23.375,-15.5
0,59,101,171,75,54,63,46,35,0.268798828125,-0.26422119140625,-0.37982177734375,0.84478759765625,-0.1962890625,-0.720703125,0.56689453125,-0.25,-23.9375,-11.75
0,48,83,158,63,47,120,53,33,0.26898193359375,-0.259765625,-0.38031005859375,0.84588623046875,-0.16845703125,-0.681640625,0.60009765625,1.5,-20.75,-7.6875
0,45,74,145,57,47,125,54,30,0.26885986328125,-0.256591796875,-0.38104248046875,0.8465576171875,-0.16015625,-0.66650390625,0.61767578125,-4.125,-14.1875,-4.1875
0,38,67,132,64,57,123,53,28,0.26873779296875,-0.2547607421875,-0.38226318359375,0.84661865234375,-0.17578125,-0.70166015625,0.6435546875,-10.1875,-8.125,-3.9375
0,33,59,118,54,52,122,50,27,0.26934814453125,-0.25341796875,-0.3834228515625,0.84625244140625,-0.16357421875,-0.734375,0.64794921875,-9.625,-2.875,-5.5
0,32,57,110,55,55,125,47,29,0.270751953125,-0.25238037109375,-0.3834228515625,0.84613037109375,-0.1474609375,-0.734375,0.6552734375,-2.8125,2.3125,-6.1875
0,46,90,128,53,52,66,36,43,0.271728515625,-0.25213623046875,-0.38262939453125,0.84625244140625,-0.1611328125,-0.72900390625,0.67041015625,-1.375,5.6875,-1.8125
0,54,111,241,65,58,57,34,45,0.2724609375,-0.253173828125,-0.3822021484375,0.84588623046875,-0.1953125,-0.7314453125,0.65966796875,-6.0,10.0625,-0.6875
0,55,159,269,67,54,54,33,48,0.273193359375,-0.2554931640625,-0.38397216796875,0.84417724609375,-0.25,-0.77685546875,0.61865234375,-18.125,12.0,-5.4375
0,57,178,274,66,54,54,40,120,0.27490234375,-0.2564697265625,-0.38519287109375,0.8427734375,-0.25,-0.76708984375,0.63671875,-12.625,8.5625,-12.0
0,77,222,267,65,59,131,64,159,0.2764892578125,-0.256591796875,-0.3837890625,0.84283447265625,-0.26416015625,-0.7080078125,0.6396484375,2.125,5.375,-9.1875
0,78,217,255,63,60,132,66,180,0.2767333984375,-0.25616455078125,-0.38018798828125,0.84454345703125,-0.27978515625,-0.63671875,0.64501953125,12.5,0.3125,0.625
0,94,237,156,50,53,136,76,268,0.27606201171875,-0.25555419921875,-0.37646484375,0.84661865234375,-0.27099609375,-0.6357421875,0.64208984375,13.3125,-2.75,5.6875
0,107,306,116,49,54,141,87,273,0.275634765625,-0.2545166015625,-0.373291015625,0.84844970703125,-0.2734375,-0.73583984375,0.67822265625,14.1875,-4.375,4.1875
0,115,399,109,53,55,144,87,274,0.27459716796875,-0.25311279296875,-0.373291015625,0.84918212890625,-0.2822265625,-0.71337890625,0.625,-1.9375,-12.0,-1.0
0,113,495,133,59,50,85,76,260,0.274169921875,-0.2515869140625,-0.37530517578125,0.84893798828125,-0.19384765625,-0.7470703125,0.578125,-9.125,-10.1875,-3.625
0,114,616,142,62,51,87,75,245,0.27435302734375,-0.25128173828125,-0.37615966796875,0.84857177734375,-0.1796875,-0.7587890625,0.5498046875,-2.5625,-0.75,-1.375
0,164,771,164,94,79,95,101,176,0.27532958984375,-0.2510986328125,-0.3760986328125,0.84832763671875,-0.2490234375,-0.79736328125,0.5966796875,1.75,0.5,-6.9375
0,273,843,187,124,108,112,137,237,0.2769775390625,-0.2501220703125,-0.37774658203125,0.84735107421875,-0.2705078125,-0.9638671875,0.50830078125,5.8125,-6.0,-14.0625
0,311,879,195,127,112,114,146,230,0.2781982421875,-0.2467041015625,-0.37744140625,0.84808349609375,-0.2197265625,-0.8076171875,0.38671875,22.75,-18.3125,-11.9375
0,316,913,195,130,115,111,149,232,0.2772216796875,-0.24456787109375,-0.37225341796875,0.851318359375,-0.20068359375,-0.67236328125,0.4326171875,39.25,-10.5625,11.5625
0,317,903,190,141,116,110,151,235,0.27691650390625,-0.2432861328125,-0.3699951171875,0.852783203125,-0.16357421875,-0.6982421875,0.45703125,21.1875,-5.75,5.875
0,290,841,176,146,113,98,132,215,0.2783203125,-0.24188232421875,-0.36895751953125,0.8531494140625,-0.228515625,-0.64453125,0.53076171875,9.125,-4.875,-10.5625
0,187,774,148,142,90,70,85,139,0.27789306640625,-0.24224853515625,-0.37066650390625,0.8524169921875,-0.12060546875,-0.61669921875,0.53955078125,-13.8125,1.8125,1.4375
0,108,753,149,144,85,56,68,104,0.27655029296875,-0.2451171875,-0.3753662109375,0.8499755859375,-0.14453125,-0.71484375,0.5966796875,-37.1875,9.625,4.875
0,89,727,206,148,82,46,55,80,0.275390625,-0.24798583984375,-0.37969970703125,0.84759521484375,-0.14208984375,-0.78173828125,0.591796875,-32.625,10.8125,5.875
0,85,726,220,149,88,45,52,75,0.27337646484375,-0.251708984375,-0.3807373046875,0.8466796875,-0.173828125,-0.77001953125,0.5673828125,-15.375,15.0625,17.0
0,95,753,228,141,70,40,46,64,0.27203369140625,-0.2567138671875,-0.38177490234375,0.84515380859375,-0.16943359375,-0.8046875,0.54541015625,-15.625,23.875,17.1875
0,98,812,240,135,65,43,47,65,0.27099609375,-0.2626953125,-0.38140869140625,0.84381103515625,-0.2099609375,-0.78857421875,0.51123046875,-8.5625,29.125,17.75
0,94,783,237,131,65,41,46,62,0.2691650390625,-0.26959228515625,-0.3790283203125,0.84332275390625,-0.25439453125,-0.74462890625,0.52294921875,-2.1875,32.8125,25.875
0,90,707,179,128,63,37,43,58,0.2666015625,-0.2772216796875,-0.37677001953125,0.8426513671875,-0.2890625,-0.70068359375,0.52978515625,-8.0,34.1875,28.5625
0,84,659,160,119,53,38,40,50,0.26348876953125,-0.2852783203125,-0.37640380859375,0.84112548828125,-0.3466796875,-0.70751953125,0.5087890625,-19.375,31.8125,25.625
0,59,550,185,105,85,227,114,46,0.26165771484375,-0.29388427734375,-0.3795166015625,0.83734130859375,-0.38525390625,-0.8486328125,0.498046875,-34.8125,34.5625,12.5625
0,53,405,175,101,141,318,176,51,0.26116943359375,-0.3011474609375,-0.38494873046875,0.8323974609375,-0.421875,-0.9775390625,0.462890625,-38.375,28.1875,-1.4375
0,50,362,168,106,153,407,264,58,0.26123046875,-0.3057861328125,-0.38873291015625,0.82891845703125,-0.4365234375,-1.01513671875,0.4306640625,-20.5625,16.125,-4.9375
0,43,394,162,106,159,447,282,58,0.260986328125,-0.3074951171875,-0.39007568359375,0.8277587890625,-0.38525390625,-0.9033203125,0.4931640625,-8.0,4.375,-1.5625
0,43,689,178,100,164,459,284,59,0.261474609375,-0.3065185546875,-0.39068603515625,0.82763671875,-0.3681640625,-0.91455078125,0.54345703125,1.125,-5.6875,-7.25
0,42,987,135,105,161,427,283,59,0.26361083984375,-0.302734375,-0.39093017578125,0.8282470703125,-0.328125,-0.82177734375,0.572265625,6.4375,-14.75,-19.5625
0,30,1209,129,89,130,469,330,56,0.26739501953125,-0.29852294921875,-0.39324951171875,0.82745361328125,-0.24462890625,-0.83349609375,0.5302734375,-0.0625,-11.625,-30.0
0,32,1263,145,86,130,460,293,49,0.2706298828125,-0.29498291015625,-0.39666748046875,0.8260498046875,-0.23388671875,-0.88818359375,0.51025390625,-5.625,-11.125,-27.5625
0,35,1327,159,80,139,551,320,59,0.2730712890625,-0.28973388671875,-0.3974609375,0.82672119140625,-0.23828125,-0.88330078125,0.54296875,10.625,-20.125,-21.4375
0,34,1186,145,82,170,697,355,67,0.2750244140625,-0.2822265625,-0.39520263671875,0.82977294921875,-0.22509765625,-0.8154296875,0.57177734375,30.375,-31.125,-16.5
0,35,937,140,69,167,713,346,68,0.27630615234375,-0.27386474609375,-0.392822265625,0.833251953125,-0.20947265625,-0.74951171875,0.5712890625,30.5625,-37.125,-14.8125
0,35,618,133,66,157,667,293,63,0.276611328125,-0.26641845703125,-0.39410400390625,0.8349609375,-0.1982421875,-0.7900390625,0.5498046875,9.25,-38.25,-16.0625
0,80,478,111,55,147,687,305,155,0.27783203125,-0.26025390625,-0.3978271484375,0.834716796875,-0.20849609375,-0.8642578125,0.53662109375,-4.0625,-32.5,-24.75
0,93,181,87,46,136,615,316,303,0.27880859375,-0.2540283203125,-0.400390625,0.8350830078125,-0.24169921875,-0.87841796875,0.564453125,1.6875,-33.625,-23.5625
0,115,146,75,46,95,463,366,375,0.27825927734375,-0.24664306640625,-0.40167236328125,0.8369140625,-0.23388671875,-0.86376953125,0.583984375,9.5625,-42.6875,-15.0
0,143,163,76,49,88,451,433,412,0.27752685546875,-0.23907470703125,-0.40380859375,0.8382568359375,-0.177734375,-0.8408203125,0.56494140625,4.5625,-43.1875,-14.4375
0,163,211,73,57,101,482,462,450,0.27679443359375,-0.23284912109375,-0.40716552734375,0.83868408203125,-0.11083984375,-0.7919921875,0.52734375,-5.1875,-35.8125,-12.0
0,156,212,71,60,101,410,446,454,0.27691650390625,-0.22955322265625,-0.41192626953125,0.83721923828125,-0.11181640625,-0.8369140625,0.42138671875,-12.375,-20.6875,-14.3125
0,158,196,69,60,97,380,424,387,0.2763671875,-0.2291259765625,-0.41827392578125,0.8343505859375,-0.15576171875,-0.84912109375,0.38671875,-27.3125,-11.6875,-11.375
0,144,206,69,62,115,363,359,333,0.27728271484375,-0.23046875,-0.4248046875,0.83038330078125,-0.2265625,-0.96484375,0.361328125,-26.625,-1.5,-19.0625
0,120,193,60,60,108,329,283,288,0.27947998046875,-0.23077392578125,-0.4271240234375,0.828369140625,-0.25537109375,-0.9794921875,0.3603515625,1.4375,-0.0625,-21.3125
0,91,125,51,51,92,256,214,233,0.28155517578125,-0.22882080078125,-0.426025390625,0.8287353515625,-0.189453125,-0.921875,0.3662109375,25.0,-6.4375,-14.75
0,73,116,48,54,118,218,198,178,0.282470703125,-0.2257080078125,-0.423828125,0.8304443359375,-0.14208984375,-0.8447265625,0.38720703125,30.125,-13.0,-6.5625
0,48,108,51,61,128,196,160,142,0.282470703125,-0.22369384765625,-0.4229736328125,0.8314208984375,-0.1318359375,-0.76611328125,0.376953125,16.9375,-11.1875,-2.875
0,46,75,86,59,106,158,132,97,0.28265380859375,-0.2232666015625,-0.42498779296875,0.8304443359375,-0.14111328125,-0.787109375,0.39599609375,-4.4375,-5.5,-7.0
0,34,71,97,63,110,123,93,90,0.28363037109375,-0.223388671875,-0.4283447265625,0.828369140625,-0.10693359375,-0.82275390625,0.3994140625,-12.6875,-0.125,-11.0625
0,34,67,101,68,111,86,62,63,0.284423828125,-0.224609375,-0.432861328125,0.82537841796875,-0.09912109375,-0.8369140625,0.421875,-23.9375,4.125,-10.0625
0,30,67,102,64,82,79,51,51,0.2852783203125,-0.2255859375,-0.4375,0.8223876953125,-0.07763671875,-0.8564453125,0.45849609375,-26.0625,4.0625,-9.625
0,28,69,129,61,96,71,48,39,0.28497314453125,-0.22613525390625,-0.4407958984375,0.820556640625,-0.06689453125,-0.8759765625,0.5029296875,-20.5625,0.75,-1.25
0,32,71,191,65,100,57,42,32,0.28460693359375,-0.2274169921875,-0.44354248046875,0.81884765625,-0.0966796875,-0.919921875,0.4931640625,-16.8125,3.6875,0.8125
0,34,95,284,68,98,52,33,33,0.2864990234375,-0.2286376953125,-0.444580078125,0.8172607421875,-0.09716796875,-0.91748046875,0.47705078125,-5.0625,11.25,-8.25
0,40,124,352,84,107,48,31,30,0.29034423828125,-0.230712890625,-0.44580078125,0.814697265625,-0.07666015625,-0.912109375,0.48193359375,-7.9375,22.25,-15.375
0,49,202,426,111,107,48,33,34,0.296142578125,-0.2335205078125,-0.446044921875,0.8116455078125,-0.04345703125,-0.908203125,0.5078125,-5.3125,34.125,-20.6875
0,59,244,479,131,97,49,34,39,0.302001953125,-0.2364501953125,-0.4447021484375,0.80938720703125,-0.052734375,-0.892578125,0.498046875,4.0625,36.0625,-18.0625
0,60,300,570,167,117,49,38,46,0.306396484375,-0.23895263671875,-0.4415283203125,0.8087158203125,-0.07421875,-0.8046875,0.5302734375,10.625,31.0,-8.75
0,68,369,584,327,163,56,43,53,0.3111572265625,-0.2408447265625,-0.4354248046875,0.80963134765625,-0.08056640625,-0.7724609375,0.5068359375,30.625,31.375,-5.875
0,65,383,625,340,164,57,42,52,0.3148193359375,-0.24505615234375,-0.4327392578125,0.80841064453125,-0.11865234375,-0.86865234375,0.47509765625,9.25,34.9375,-4.375
0,66,350,586,390,189,63,44,54,0.3182373046875,-0.24908447265625,-0.429931640625,0.807373046875,-0.14892578125,-0.7392578125,0.49609375,4.5,33.0625,-6.0625
0,85,360,547,482,212,165,70,58,0.31890869140625,-0.25408935546875,-0.4268798828125,0.80718994140625,-0.14453125,-0.7451171875,0.56396484375,-1.875,30.875,11.75
0,93,335,459,551,246,181,75,58,0.3172607421875,-0.26092529296875,-0.4259033203125,0.80615234375,-0.16845703125,-0.8671875,0.4716796875,-10.6875,29.9375,22.8125
0,88,267,394,485,224,182,73,56,0.316650390625,-0.2685546875,-0.4298095703125,0.8017578125,-0.21533203125,-1.14990234375,0.41748046875,-29.375,30.5625,7.375
0,88,268,258,481,222,197,102,57,0.31622314453125,-0.27349853515625,-0.4288330078125,0.80078125,-0.26904296875,-0.95849609375,0.47509765625,-3.75,21.375,8.75
0,85,328,245,439,200,212,119,52,0.31475830078125,-0.27685546875,-0.42376708984375,0.80291748046875,-0.33251953125,-0.91357421875,0.49169921875,21.5625,12.125,18.125
0,61,295,229,339,176,327,170,46,0.31427001953125,-0.278076171875,-0.4197998046875,0.80474853515625,-0.2841796875,-0.90234375,0.46044921875,23.8125,4.875,9.375
0,50,273,153,185,106,363,190,43,0.31390380859375,-0.27874755859375,-0.417236328125,0.8060302734375,-0.24951171875,-0.822265625,0.4560546875,14.375,2.0625,5.5
0,78,264,130,152,129,528,348,81,0.31304931640625,-0.279052734375,-0.41729736328125,0.80621337890625,-0.22314453125,-0.86376953125,0.4794921875,-0.375,-2.375,3.3125
0,90,239,120,129,140,594,441,145,0.3121337890625,-0.27789306640625,-0.41741943359375,0.80694580078125,-0.21435546875,-0.86572265625,0.49853515625,2.4375,-10.0,1.125
0,99,141,98,114,153,613,469,163,0.3101806640625,-0.27520751953125,-0.41571044921875,0.8094482421875,-0.20849609375,-0.84375,0.52392578125,14.0,-18.4375,8.5625
0,139,120,95,82,144,662,622,346,0.30853271484375,-0.27178955078125,-0.41351318359375,0.8123779296875,-0.16455078125,-0.76904296875,0.5244140625,17.5,-19.625,8.4375
0,140,144,84,65,140,659,633,406,0.30731201171875,-0.268310546875,-0.41162109375,0.81494140625,-0.14697265625,-0.68798828125,0.51025390625,13.875,-18.625,5.125
0,137,176,94,59,114,565,599,410,0.30487060546875,-0.26629638671875,-0.41290283203125,0.81585693359375,-0.13818359375,-0.689453125,0.47607421875,-6.75,-17.5,6.875
0,137,176,106,58,106,513,561,405,0.302490234375,-0.26446533203125,-0.4169921875,0.81524658203125,-0.14892578125,-0.81396484375,0.47412109375,-19.75,-20.0,1.0625
0,153,198,112,60,87,496,585,492,0.3009033203125,-0.2618408203125,-0.4217529296875,0.81427001953125,-0.14111328125,-0.93896484375,0.43701171875,-14.9375,-22.4375,-4.75
0,122,200,113,60,91,363,417,419,0.298583984375,-0.25811767578125,-0.42437744140625,0.81494140625,-0.16357421875,-0.9619140625,0.4375,0.5625,-29.0,0.5625
0,121,182,115,59,104,440,412,384,0.29681396484375,-0.25421142578125,-0.4276123046875,0.81512451171875,-0.17626953125,-0.96044921875,0.3671875,1.4375,-30.625,-5.375
0,109,140,106,58,94,424,383,380,0.296142578125,-0.25054931640625,-0.43145751953125,0.814453125,-0.171875,-0.9599609375,0.37353515625,-2.9375,-26.6875,-12.5625
0,102,123,88,57,85,403,340,368,0.29669189453125,-0.2462158203125,-0.43426513671875,0.8140869140625,-0.1875,-0.96435546875,0.38916015625,4.8125,-25.75,-19.25
0,64,88,94,63,92,403,252,232,0.2982177734375,-0.24102783203125,-0.43621826171875,0.81402587890625,-0.16259765625,-0.93017578125,0.3994140625,10.875,-25.75,-24.1875
0,59,99,109,335,183,370,223,168,0.300048828125,-0.23529052734375,-0.4376220703125,0.81427001953125,-0.09765625,-0.82177734375,0.427734375,9.75,-24.6875,-23.1875
0,58,100,105,357,183,227,183,107,0.30218505859375,-0.2310791015625,-0.44189453125,0.81243896484375,-0.0703125,-0.916015625,0.4130859375,-7.0625,-18.75,-26.8125
0,58,103,104,369,190,176,116,74,0.3046875,-0.22747802734375,-0.44512939453125,0.81072998046875,-0.076171875,-0.9130859375,0.4619140625,-5.625,-13.3125,-26.3125
0,57,110,126,409,213,165,103,68,0.30877685546875,-0.22235107421875,-0.4442138671875,0.81109619140625,-0.01708984375,-0.74951171875,0.50146484375,15.8125,-9.9375,-26.9375
0,53,104,119,487,226,125,84,51,0.31292724609375,-0.21942138671875,-0.44580078125,0.80938720703125,0.01123046875,-0.73681640625,0.54052734375,-7.875,-0.375,-27.0
0,63,113,129,391,174,94,69,50,0.317138671875,-0.218994140625,-0.4508056640625,0.80511474609375,-0.021484375,-0.81396484375,0.517578125,-31.0,6.75,-32.25
0,97,155,179,508,251,104,77,51,0.322998046875,-0.21954345703125,-0.45587158203125,0.79974365234375,-0.04345703125,-0.95654296875,0.5625,-32.4375,16.25,-40.5625
0,111,177,271,589,301,109,78,54,0.32904052734375,-0.21710205078125,-0.4544677734375,0.79876708984375,0.01123046875,-0.6787109375,0.54345703125,6.125,10.375,-31.3125
0,118,191,287,576,307,107,73,51,0.331787109375,-0.21710205078125,-0.45770263671875,0.7957763671875,-0.06591796875,-0.82568359375,0.54833984375,-24.75,4.3125,-23.625
0,121,206,328,595,313,110,73,48,0.3333740234375,-0.21685791015625,-0.4617919921875,0.79278564453125,-0.17333984375,-0.9267578125,0.572265625,-28.0625,-5.625,-27.1875
0,133,209,362,728,381,121,73,49,0.3355712890625,-0.21234130859375,-0.46270751953125,0.7926025390625,0.0068359375,-0.91796875,0.48974609375,7.5,-15.125,-21.1875
0,117,194,406,691,379,111,67,48,0.33941650390625,-0.208984375,-0.46246337890625,0.7919921875,0.0693359375,-0.89794921875,0.4951171875,10.75,-0.9375,-21.875
0,105,175,374,672,359,111,64,46,0.3411865234375,-0.2066650390625,-0.4595947265625,0.79351806640625,-0.04736328125,-0.7529296875,0.4873046875,19.9375,-3.25,-10.0
0,100,173,364,720,352,106,64,48,0.342041015625,-0.2047119140625,-0.4583740234375,0.7943115234375,-0.02197265625,-0.82275390625,0.50732421875,10.0,-5.4375,-6.75
0,99,161,347,670,338,100,61,50,0.34326171875,-0.2039794921875,-0.4578857421875,0.7943115234375,-0.02685546875,-0.96875,0.4794921875,9.8125,0.1875,-7.75
0,79,155,329,536,269,87,55,45,0.3460693359375,-0.20208740234375,-0.455078125,0.795166015625,-0.05517578125,-0.8505859375,0.44482421875,24.875,1.3125,-16.1875
0,70,139,269,508,220,76,47,39,0.3468017578125,-0.20123291015625,-0.45318603515625,0.796142578125,-0.0283203125,-0.67919921875,0.4599609375,10.125,-0.1875,-2.9375
0,68,137,248,464,197,76,48,40,0.34503173828125,-0.20343017578125,-0.45550537109375,0.7950439453125,-0.05078125,-0.7890625,0.4423828125,-18.9375,0.625,6.5625
0,65,140,294,386,188,83,53,44,0.3431396484375,-0.20562744140625,-0.45709228515625,0.79437255859375,-0.09912109375,-0.95947265625,0.4677734375,-10.375,-0.4375,5.9375
0,61,138,275,359,186,125,74,40,0.341552734375,-0.2060546875,-0.4547119140625,0.79632568359375,-0.08740234375,-0.88232421875,0.498046875,13.875,-2.3125,10.6875
0,52,122,254,306,159,226,130,39,0.3397216796875,-0.2066650390625,-0.45269775390625,0.798095703125,-0.07421875,-0.72998046875,0.50830078125,5.5625,-1.9375,12.25
0,51,120,234,249,128,255,145,41,0.337158203125,-0.20904541015625,-0.4532470703125,0.7982177734375,-0.0888671875,-0.78125,0.55078125,-16.0,1.0,13.75
0,50,119,232,187,107,271,154,42,0.3333740234375,-0.21124267578125,-0.452392578125,0.7996826171875,-0.09912109375,-0.9033203125,0.5322265625,-1.5,-2.3125,22.875
0,43,85,159,153,93,296,154,33,0.33087158203125,-0.21142578125,-0.44927978515625,0.802490234375,-0.0517578125,-0.927734375,0.5712890625,16.4375,-3.0625,20.9375
0,40,73,154,139,95,345,185,44,0.32916259765625,-0.21173095703125,-0.446044921875,0.80487060546875,-0.06787109375,-0.83154296875,0.552734375,15.125,-0.5625,15.5625
0,41,64,130,130,93,324,158,44,0.3270263671875,-0.21221923828125,-0.44476318359375,0.80633544921875,-0.0625,-0.7919921875,0.56103515625,0.875,-2.5625,14.4375
0,39,57,115,103,86,312,149,43,0.32373046875,-0.212158203125,-0.44384765625,0.80816650390625,-0.048828125,-0.8525390625,0.58251953125,0.875,-9.125,20.125
0,36,58,97,87,78,299,140,41,0.31951904296875,-0.21099853515625,-0.44085693359375,0.811767578125,-0.03369140625,-0.86669921875,0.58984375,16.625,-13.5,28.25
0,41,106,86,64,67,279,142,49,0.31573486328125,-0.20916748046875,-0.4368896484375,0.81585693359375,-0.013671875,-0.78125,0.5966796875,21.0625,-13.5625,28.125
0,56,118,83,56,56,195,85,64,0.31304931640625,-0.20782470703125,-0.4337158203125,0.81890869140625,-0.017578125,-0.783203125,0.6142578125,14.875,-8.6875,21.25
0,96,167,91,50,41,127,70,163,0.31103515625,-0.206298828125,-0.43023681640625,0.8218994140625,-0.0419921875,-0.8291015625,0.654296875,17.3125,-7.6875,16.875
0,133,319,154,61,49,97,73,255,0.30908203125,-0.20428466796875,-0.4246826171875,0.8260498046875,-0.0654296875,-0.86767578125,0.69873046875,30.6875,-8.3125,18.6875
0,157,401,190,64,51,86,75,274,0.306640625,-0.20166015625,-0.4183349609375,0.830810546875,-0.14013671875,-0.896484375,0.66259765625,41.25,-14.5625,18.0625
0,176,533,195,68,53,69,72,298,0.30426025390625,-0.1986083984375,-0.4146728515625,0.834228515625,-0.0947265625,-0.85888671875,0.671875,24.5625,-17.9375,13.625
0,205,693,206,70,60,66,75,334,0.30426025390625,-0.1956787109375,-0.41192626953125,0.8363037109375,0.01904296875,-0.89111328125,0.66650390625,21.9375,-7.4375,5.75
0,213,855,223,73,64,67,82,311,0.30633544921875,-0.1929931640625,-0.4041748046875,0.8399658203125,0.03173828125,-0.81640625,0.6767578125,48.75,6.5625,4.9375
0,205,847,194,62,56,65,82,279,0.30780029296875,-0.19232177734375,-0.3934326171875,0.84466552734375,-0.00439453125,-0.60205078125,0.578125,59.8125,16.9375,14.5625
0,194,881,163,58,53,67,87,326,0.30780029296875,-0.19427490234375,-0.38299560546875,0.8489990234375,-0.05322265625,-0.47119140625,0.6318359375,43.5,24.625,23.875
0,209,923,183,53,56,67,87,350,0.306884765625,-0.19842529296875,-0.37457275390625,0.85211181640625,-0.1142578125,-0.55810546875,0.70849609375,26.5625,29.8125,26.75
0,185,831,173,48,50,61,90,338,0.3067626953125,-0.20233154296875,-0.3701171875,0.85321044921875,-0.10205078125,-0.716796875,0.63330078125,16.0,26.125,16.3125
0,170,677,146,40,45,56,95,386,0.3079833984375,-0.20538330078125,-0.365478515625,0.85400390625,-0.12890625,-0.7412109375,0.58349609375,23.375,24.0,7.0
0,157,647,132,39,44,56,89,367,0.3089599609375,-0.20751953125,-0.36181640625,0.85467529296875,-0.0830078125,-0.69384765625,0.6123046875,16.1875,20.0,7.1875
0,153,553,122,34,41,46,80,318,0.3104248046875,-0.209228515625,-0.36041259765625,0.8543701171875,-0.07421875,-0.65771484375,0.60546875,3.5,16.3125,-0.25
0,109,375,71,66,57,35,73,270,0.3118896484375,-0.20916748046875,-0.35833740234375,0.854736328125,-0.10205078125,-0.693359375,0.6865234375,8.6875,7.6875,-3.0625
0,95,328,61,111,107,38,64,240,0.31231689453125,-0.20733642578125,-0.3570556640625,0.85552978515625,-0.06640625,-0.64501953125,0.66650390625,6.8125,-3.5625,-0.4375
0,69,282,66,146,114,42,44,123,0.311279296875,-0.20623779296875,-0.35809326171875,0.85577392578125,-0.10693359375,-0.64306640625,0.6650390625,-8.75,-8.5,2.4375
0,63,268,81,215,132,43,34,100,0.31011962890625,-0.20550537109375,-0.3604736328125,0.8553466796875,-0.109375,-0.6298828125,0.67626953125,-19.0,-8.875,0.6875
0,53,320,140,228,143,50,33,76,0.30938720703125,-0.20550537109375,-0.362548828125,0.854736328125,-0.099609375,-0.634765625,0.6865234375,-19.25,-2.75,0.3125
0,40,278,169,233,139,50,33,59,0.30816650390625,-0.20745849609375,-0.365234375,0.85357666015625,-0.12255859375,-0.6982421875,0.6865234375,-25.25,4.0,4.5625
0,38,289,225,258,115,49,30,51,0.306640625,-0.2093505859375,-0.36810302734375,0.8524169921875,-0.123046875,-0.7275390625,0.6787109375,-24.8125,3.25,6.1875
0,43,315,289,267,114,46,28,42,0.3055419921875,-0.21142578125,-0.371826171875,0.85064697265625,-0.13720703125,-0.7724609375,0.66015625,-28.0,3.375,1.875
0,51,302,354,274,121,46,31,42,0.3045654296875,-0.2125244140625,-0.3756103515625,0.84906005859375,-0.1533203125,-0.802734375,0.6318359375,-23.5625,-2.3125,-1.125
0,63,244,371,309,129,59,45,47,0.303955078125,-0.21148681640625,-0.3760986328125,0.849365234375,-0.109375,-0.71923828125,0.62548828125,-2.625,-6.6875,1.3125
0,68,214,385,362,145,65,49,50,0.30389404296875,-0.2108154296875,-0.37640380859375,0.849365234375,-0.09326171875,-0.70166015625,0.57958984375,-0.875,-3.0,-0.25
0,73,190,405,363,157,69,52,50,0.30523681640625,-0.2110595703125,-0.3787841796875,0.84783935546875,-0.1328125,-0.69677734375,0.60888671875,-16.125,1.375,-12.375
0,79,147,398,380,165,70,53,50,0.3070068359375,-0.21026611328125,-0.384033203125,0.84503173828125,-0.1337890625,-0.66845703125,0.6025390625,-32.3125,-6.5625,-23.3125
0,80,162,416,385,155,79,60,54,0.30743408203125,-0.2099609375,-0.39190673828125,0.84130859375,-0.1005859375,-0.734375,0.6611328125,-50.75,-8.8125,-18.8125
0,72,175,424,390,167,73,66,46,0.30560302734375,-0.2098388671875,-0.3994140625,0.83843994140625,-0.12158203125,-0.7529296875,0.67333984375,-50.875,-14.5,-6.4375
0,72,182,431,341,158,68,63,42,0.30224609375,-0.20660400390625,-0.4014892578125,0.8394775390625,-0.22265625,-0.8134765625,0.6943359375,-11.375,-32.1875,1.375
0,70,183,399,323,146,64,62,39,0.2991943359375,-0.200439453125,-0.39898681640625,0.84326171875,-0.103515625,-0.7763671875,0.6689453125,23.3125,-36.75,9.4375
0,63,174,382,296,144,74,67,41,0.29730224609375,-0.19537353515625,-0.39697265625,0.8460693359375,-0.0078125,-0.66552734375,0.6337890625,16.0,-24.875,8.75
0,57,161,306,250,147,242,131,38,0.29541015625,-0.1937255859375,-0.3983154296875,0.84649658203125,-0.04736328125,-0.71337890625,0.65185546875,-10.6875,-12.875,6.6875
0,52,139,251,208,132,257,130,37,0.2943115234375,-0.19305419921875,-0.3990478515625,0.8466796875,-0.0244140625,-0.78173828125,0.66845703125,-6.9375,-3.6875,6.8125
0,49,139,212,200,128,262,132,37,0.2933349609375,-0.192138671875,-0.39715576171875,0.84808349609375,-0.00537109375,-0.78076171875,0.6376953125,11.125,-1.0,11.9375
0,44,146,234,186,124,270,132,38,0.29248046875,-0.19134521484375,-0.394287109375,0.84991455078125,-0.01171875,-0.7333984375,0.6162109375,16.125,0.375,12.6875
0,44,149,208,161,114,277,133,37,0.291748046875,-0.19122314453125,-0.3924560546875,0.85107421875,-0.02978515625,-0.72705078125,0.59814453125,9.75,2.1875,10.75
0,40,130,200,141,97,184,77,33,0.29058837890625,-0.19110107421875,-0.391845703125,0.85174560546875,-0.0556640625,-0.7470703125,0.58740234375,3.875,-1.25,9.1875
0,38,117,199,99,70,166,66,30,0.28863525390625,-0.190185546875,-0.39141845703125,0.852783203125,-0.0712890625,-0.7763671875,0.6162109375,4.0625,-8.1875,11.0
0,35,100,181,84,62,159,62,31,0.28680419921875,-0.188232421875,-0.390380859375,0.85430908203125,-0.052734375,-0.77197265625,0.63916015625,8.5625,-11.5,10.6875
0,32,99,145,67,93,146,62,31,0.28619384765625,-0.1856689453125,-0.38861083984375,0.85589599609375,-0.02587890625,-0.72021484375,0.63916015625,13.0,-9.625,5.375
0,41,156,139,61,93,133,58,31,0.2867431640625,-0.1842041015625,-0.38653564453125,0.85699462890625,-0.0361328125,-0.697265625,0.6728515625,10.0,-1.0625,0.5
0,56,249,137,52,91,77,40,33,0.28765869140625,-0.18463134765625,-0.38568115234375,0.85693359375,-0.1083984375,-0.7548828125,0.666015625,2.0,5.25,-3.625
0,117,420,153,65,96,66,55,71,0.28900146484375,-0.1851806640625,-0.38446044921875,0.85693359375,-0.150390625,-0.802734375,0.7314453125,2.9375,5.875,-6.9375
0,126,554,157,72,100,67,59,80,0.2906494140625,-0.18585205078125,-0.3819580078125,0.85736083984375,-0.16357421875,-0.8544921875,0.73291015625,12.875,8.375,-6.1875
0,140,656,136,78,69,65,63,96,0.292236328125,-0.18634033203125,-0.3779296875,0.85845947265625,-0.1298828125,-0.74755859375,0.748046875,17.0625,10.5625,-2.25
0,155,779,159,94,72,64,71,126,0.29388427734375,-0.187744140625,-0.37054443359375,0.86083984375,-0.0947265625,-0.6162109375,0.72900390625,30.8125,21.25,6.5625
0,180,838,154,97,74,68,76,137,0.29443359375,-0.1920166015625,-0.3642578125,0.86236572265625,-0.11572265625,-0.58837890625,0.578125,24.6875,30.625,14.375
0,195,834,144,86,67,66,67,208,0.2928466796875,-0.19757080078125,-0.3599853515625,0.86346435546875,-0.15576171875,-0.50537109375,0.58642578125,5.625,28.1875,22.5
0,245,851,145,84,67,64,71,224,0.290771484375,-0.20440673828125,-0.35931396484375,0.86285400390625,-0.17041015625,-0.740234375,0.5556640625,-6.5,29.0,22.5
0,261,814,134,79,62,60,93,393,0.2908935546875,-0.2091064453125,-0.358642578125,0.86199951171875,-0.19873046875,-0.85888671875,0.53271484375,5.625,22.3125,7.375
0,281,778,113,57,54,53,94,416,0.29180908203125,-0.21197509765625,-0.35540771484375,0.8623046875,-0.2314453125,-0.87451171875,0.533203125,25.625,15.875,3.375
0,289,716,112,52,52,48,101,468,0.29254150390625,-0.21282958984375,-0.3515625,0.8634033203125,-0.13427734375,-0.78076171875,0.57470703125,27.375,11.375,6.5
