,channel 1,channel 2,channel 3,channel 4,channel 5,channel 6,channel 7,channel 8,channel 9,channel 10,channel 11,channel 12,channel 13,channel 14,channel 15,channel 16,channel 17,channel 18
0,19,22,52,69,173,60,25,22,0.65228271484375,0.15576171875,-0.45703125,0.584228515625,0.8701171875,-0.2587890625,0.7138671875,0.5,2.625,0.5
0,18,24,53,83,216,64,28,24,0.652587890625,0.1533203125,-0.4560546875,0.58526611328125,0.48779296875,-0.36865234375,0.47900390625,-0.625,5.5625,-0.25
0,20,24,57,86,222,62,29,26,0.65325927734375,0.153564453125,-0.454833984375,0.58544921875,0.7431640625,-0.30126953125,0.53466796875,3.625,4.75,-2.125
0,22,24,96,92,201,69,28,26,0.65325927734375,0.153564453125,-0.454833984375,0.58544921875,0.75732421875,-0.3203125,0.5224609375,0.9375,0.4375,-0.4375
0,22,29,115,81,195,64,27,25,0.65338134765625,0.15374755859375,-0.45465087890625,0.58538818359375,0.77978515625,-0.3173828125,0.5263671875,0.75,1.25,-0.5
0,27,45,128,83,194,63,28,30,0.65350341796875,0.15386962890625,-0.45452880859375,0.5853271484375,0.77294921875,-0.318359375,0.51904296875,0.625,1.375,-0.25
0,28,64,197,90,171,56,25,29,0.65386962890625,0.1546630859375,-0.45465087890625,0.5845947265625,1.09375,-0.3125,0.70947265625,-4.3125,0.125,2.5
0,35,156,265,91,158,59,21,27,0.65087890625,0.1529541015625,-0.4598388671875,0.5843505859375,0.208984375,-0.42626953125,-0.31640625,1.0,2.625,0.0625
0,37,190,370,92,164,58,24,29,0.65509033203125,0.15374755859375,-0.45269775390625,0.58502197265625,1.31982421875,-0.19580078125,1.4599609375,-1.75,5.8125,0.3125
0,58,381,415,93,184,75,29,34,0.656494140625,0.15325927734375,-0.45074462890625,0.5850830078125,0.85009765625,-0.3017578125,0.65625,0.1875,10.0,-1.6875
0,64,410,439,92,167,92,31,34,0.6546630859375,0.1512451171875,-0.453857421875,0.58526611328125,0.28369140625,-0.47900390625,-0.21240234375,6.75,12.3125,-4.4375
0,66,455,438,99,172,96,33,35,0.6534423828125,0.150146484375,-0.455322265625,0.58575439453125,0.37939453125,-0.48681640625,-0.08544921875,13.8125,14.1875,-7.0
0,69,503,432,103,179,95,36,38,0.65631103515625,0.1507568359375,-0.4515380859375,0.5853271484375,0.99462890625,-0.30517578125,0.7216796875,6.0625,18.375,-9.3125
0,71,521,354,96,171,91,35,40,0.66192626953125,0.15155029296875,-0.4425048828125,0.585693359375,1.283203125,-0.15771484375,1.48095703125,2.0,16.6875,-6.875
0,59,444,336,93,202,86,31,35,0.6644287109375,0.15167236328125,-0.4381103515625,0.58612060546875,0.8203125,-0.2421875,0.76611328125,6.875,14.6875,-5.6875
0,57,445,314,117,225,69,30,33,0.66259765625,0.151611328125,-0.43927001953125,0.5872802734375,0.23583984375,-0.41650390625,-0.142578125,19.625,9.1875,-5.0
0,60,405,339,103,202,66,29,34,0.66357421875,0.154052734375,-0.43572998046875,0.58819580078125,0.7060546875,-0.17333984375,0.50537109375,18.5625,9.6875,-3.125
0,55,418,329,126,237,80,35,35,0.66485595703125,0.154296875,-0.432861328125,0.5888671875,0.779296875,-0.2646484375,0.654296875,8.0,10.875,-2.0
0,54,427,403,136,237,79,35,31,0.66497802734375,0.15478515625,-0.430908203125,0.59002685546875,0.716796875,-0.279296875,0.5986328125,9.5,4.3125,1.25
0,57,426,392,145,218,70,37,37,0.6646728515625,0.15509033203125,-0.4298095703125,0.591064453125,0.75244140625,-0.30322265625,0.5830078125,7.875,3.0625,3.1875
0,55,421,420,132,202,77,38,38,0.66339111328125,0.156494140625,-0.427490234375,0.59381103515625,0.7158203125,-0.28515625,0.587890625,12.1875,-0.5625,4.3125
0,52,431,477,142,230,90,42,37,0.66357421875,0.1575927734375,-0.42523193359375,0.59490966796875,1.1630859375,-0.3203125,1.0693359375,5.0625,-2.3125,6.125
0,50,384,497,141,213,81,37,35,0.66009521484375,0.1580810546875,-0.42864990234375,0.59619140625,0.447265625,-0.439453125,0.0263671875,13.75,-5.0,5.125
0,48,335,492,135,209,78,39,38,0.6617431640625,0.16070556640625,-0.42340087890625,0.59747314453125,1.294921875,-0.1708984375,1.40673828125,7.0625,-5.25,6.0
0,42,286,487,137,205,81,38,34,0.66119384765625,0.16278076171875,-0.42193603515625,0.5985107421875,0.9150390625,-0.236328125,0.853515625,8.125,-9.3125,5.25
0,38,253,543,145,198,75,38,33,0.657470703125,0.16461181640625,-0.42486572265625,0.60003662109375,0.3056640625,-0.396484375,0.00146484375,20.125,-12.5625,2.5625
0,34,239,469,139,177,71,32,29,0.65338134765625,0.16656494140625,-0.42938232421875,0.60076904296875,0.3359375,-0.4384765625,-0.177734375,18.75,-10.375,0.4375
0,34,219,481,139,182,64,31,27,0.6533203125,0.16949462890625,-0.42755126953125,0.601318359375,0.96728515625,-0.27880859375,0.837890625,12.25,-8.5625,-1.6875
0,34,281,456,145,202,65,31,23,0.65618896484375,0.171630859375,-0.4217529296875,0.60174560546875,1.27978515625,-0.17138671875,1.49609375,3.3125,-6.25,-2.75
0,34,281,453,149,189,59,30,22,0.65625,0.1732177734375,-0.42083740234375,0.601806640625,0.77197265625,-0.26953125,0.66845703125,6.9375,-5.75,-3.875
0,34,283,357,153,190,66,29,21,0.6533203125,0.17510986328125,-0.4241943359375,0.60211181640625,0.32861328125,-0.40234375,-0.1240234375,17.75,-6.0625,-4.9375
0,36,286,349,155,186,53,31,24,0.65338134765625,0.17706298828125,-0.42218017578125,0.60284423828125,0.51904296875,-0.2216796875,0.4453125,16.1875,-1.0625,-6.0
0,35,244,305,143,184,53,30,26,0.6536865234375,0.17864990234375,-0.42095947265625,0.60296630859375,0.78369140625,-0.25,0.5859375,9.125,0.1875,-4.125
0,36,186,266,136,160,54,29,28,0.6531982421875,0.1800537109375,-0.420166015625,0.60357666015625,0.76611328125,-0.265625,0.55810546875,9.875,-1.0625,0.125
0,40,199,273,124,178,57,31,34,0.6524658203125,0.1815185546875,-0.4190673828125,0.604736328125,0.76708984375,-0.25146484375,0.56640625,12.375,-0.8125,3.375
0,57,272,268,107,222,63,33,76,0.6517333984375,0.18280029296875,-0.41796875,0.60589599609375,0.7841796875,-0.236328125,0.5693359375,11.3125,0.5625,4.5
0,56,302,259,101,226,64,63,79,0.6522216796875,0.182373046875,-0.41607666015625,0.60675048828125,1.06298828125,-0.26904296875,0.9921875,-1.25,1.0,6.375
0,80,314,226,100,209,99,81,107,0.654541015625,0.18310546875,-0.4107666015625,0.607666015625,1.26513671875,-0.15771484375,1.36572265625,2.0625,3.4375,2.9375
0,82,332,238,103,215,101,82,113,0.65362548828125,0.181640625,-0.41180419921875,0.6083984375,0.4287109375,-0.3056640625,0.26171875,1.3125,3.5625,2.125
0,83,325,212,103,209,104,83,114,0.65081787109375,0.18084716796875,-0.41650390625,0.6083984375,0.32177734375,-0.41552734375,-0.224609375,4.6875,3.5,0.8125
0,102,279,194,107,192,116,100,130,0.65228271484375,0.18072509765625,-0.41497802734375,0.60797119140625,1.0107421875,-0.22021484375,0.84326171875,-4.5625,5.9375,-0.6875
0,103,230,197,99,201,120,88,146,0.65606689453125,0.17938232421875,-0.409423828125,0.6080322265625,1.22900390625,-0.119140625,1.52490234375,-13.125,4.625,1.25
0,103,193,192,94,205,107,81,183,0.65631103515625,0.17742919921875,-0.40985107421875,0.60809326171875,0.64111328125,-0.267578125,0.61767578125,-9.0625,0.125,2.3125
0,103,138,133,95,238,112,84,200,0.6531982421875,0.17657470703125,-0.4156494140625,0.60772705078125,0.21630859375,-0.392578125,-0.30078125,0.375,-2.0,0.75
0,110,189,130,88,241,127,84,214,0.65264892578125,0.17626953125,-0.41778564453125,0.60693359375,0.7021484375,-0.32080078125,0.39111328125,-4.4375,-1.0625,-1.6875
0,96,168,133,78,226,115,71,221,0.6556396484375,0.17596435546875,-0.41473388671875,0.60589599609375,1.30078125,-0.15625,1.357421875,-15.8125,0.125,0.5625
0,96,167,119,77,231,151,88,213,0.6553955078125,0.17626953125,-0.41619873046875,0.60504150390625,0.6298828125,-0.20361328125,0.3955078125,-4.75,-2.75,-0.5
0,83,167,97,70,220,163,81,195,0.65460205078125,0.17572021484375,-0.4190673828125,0.6041259765625,0.7509765625,-0.287109375,0.5205078125,-12.0,-8.625,2.75
0,90,166,93,59,210,167,80,185,0.65447998046875,0.1748046875,-0.4212646484375,0.60296630859375,0.77880859375,-0.2470703125,0.55322265625,-14.3125,-4.25,2.5625
0,90,91,86,75,202,162,93,211,0.65399169921875,0.17340087890625,-0.42364501953125,0.602294921875,0.76123046875,-0.28125,0.55126953125,-14.0,-4.5625,4.9375
0,79,96,65,72,204,166,91,184,0.6539306640625,0.17156982421875,-0.4259033203125,0.6011962890625,0.7626953125,-0.28857421875,0.568359375,-17.25,-2.75,2.75
0,80,92,56,67,189,132,75,183,0.6541748046875,0.16949462890625,-0.42877197265625,0.5994873046875,0.759765625,-0.3076171875,0.55029296875,-21.0625,-3.5625,-0.1875
0,85,91,55,70,198,112,81,177,0.654541015625,0.167724609375,-0.4317626953125,0.59747314453125,0.7626953125,-0.3017578125,0.5634765625,-21.875,-6.0,-1.875
0,79,89,59,69,174,159,85,175,0.65496826171875,0.1658935546875,-0.43505859375,0.5950927734375,0.76123046875,-0.30908203125,0.56298828125,-24.0,-7.6875,-3.3125
0,79,86,48,50,163,171,93,141,0.65582275390625,0.16357421875,-0.43902587890625,0.59185791015625,0.77197265625,-0.3125,0.5498046875,-30.4375,-7.0,-5.9375
0,85,60,43,61,179,168,93,170,0.65673828125,0.1612548828125,-0.4432373046875,0.58837890625,0.77392578125,-0.3291015625,0.53466796875,-31.6875,-8.0,-7.5
0,85,50,40,61,188,171,95,177,0.657470703125,0.15924072265625,-0.4476318359375,0.58477783203125,0.775390625,-0.34033203125,0.51025390625,-30.4375,-8.9375,-8.0
0,113,47,38,62,189,178,90,169,0.65789794921875,0.15789794921875,-0.4517822265625,0.58148193359375,0.7822265625,-0.34375,0.5,-26.125,-10.75,-8.0
0,116,44,32,59,178,130,85,169,0.65850830078125,0.15679931640625,-0.4554443359375,0.5782470703125,0.7841796875,-0.326171875,0.51318359375,-24.3125,-10.1875,-8.4375
0,118,44,30,58,216,128,68,180,0.65948486328125,0.1556396484375,-0.45892333984375,0.5745849609375,0.7861328125,-0.310546875,0.51904296875,-26.5625,-9.4375,-10.125
0,116,49,34,57,214,132,70,152,0.6607666015625,0.154052734375,-0.46270751953125,0.57049560546875,0.7890625,-0.333984375,0.4970703125,-29.5625,-7.8125,-12.5625
0,117,49,43,56,200,129,64,154,0.662353515625,0.1522216796875,-0.466552734375,0.5660400390625,0.78369140625,-0.375,0.47900390625,-30.0,-6.4375,-16.625
0,82,47,42,49,187,115,70,144,0.66400146484375,0.1512451171875,-0.47003173828125,0.56146240234375,0.794921875,-0.353515625,0.4775390625,-27.0,-7.6875,-18.75
0,77,51,43,55,200,159,72,135,0.6658935546875,0.15069580078125,-0.47332763671875,0.55657958984375,0.81103515625,-0.337890625,0.490234375,-26.5625,-8.4375,-20.6875
0,60,49,46,56,158,141,65,94,0.66815185546875,0.14990234375,-0.47637939453125,0.55145263671875,0.79150390625,-0.32470703125,0.50439453125,-29.0625,-8.125,-22.3125
0,52,47,45,42,119,139,86,92,0.67059326171875,0.14886474609375,-0.47967529296875,0.5458984375,0.791015625,-0.32666015625,0.50537109375,-31.5625,-8.4375,-23.5625
0,45,52,45,44,201,153,86,66,0.672607421875,0.14849853515625,-0.483154296875,0.5404052734375,0.794921875,-0.30859375,0.5009765625,-30.25,-12.8125,-23.125
0,52,62,49,63,212,160,83,51,0.67425537109375,0.1485595703125,-0.48687744140625,0.53497314453125,0.7978515625,-0.3154296875,0.4921875,-27.8125,-15.8125,-23.125
0,50,62,50,61,199,118,81,42,0.67547607421875,0.1490478515625,-0.49053955078125,0.5299072265625,0.80078125,-0.3095703125,0.4736328125,-25.0,-17.1875,-21.625
0,51,63,51,66,201,115,79,34,0.67645263671875,0.14984130859375,-0.4940185546875,0.52520751953125,0.81591796875,-0.31005859375,0.46923828125,-21.8125,-17.8125,-20.0
0,51,65,53,71,216,106,52,30,0.67706298828125,0.150634765625,-0.4976806640625,0.52069091796875,0.82568359375,-0.2978515625,0.4482421875,-21.75,-18.1875,-17.8125
0,58,67,50,74,152,91,55,30,0.67803955078125,0.1510009765625,-0.5010986328125,0.51605224609375,0.83154296875,-0.28466796875,0.458984375,-23.6875,-16.125,-17.4375
0,54,61,50,72,135,73,52,32,0.6787109375,0.15106201171875,-0.50457763671875,0.51171875,0.82275390625,-0.30419921875,0.42236328125,-23.0,-14.875,-15.75
0,53,66,68,126,147,66,50,30,0.67938232421875,0.15106201171875,-0.507568359375,0.50787353515625,0.8359375,-0.30126953125,0.421875,-20.375,-12.25,-14.3125
0,63,74,67,136,145,65,50,32,0.6798095703125,0.1510009765625,-0.51007080078125,0.50482177734375,0.853515625,-0.2978515625,0.4013671875,-16.5625,-8.8125,-9.5625
0,72,82,92,158,174,61,46,35,0.68048095703125,0.14996337890625,-0.51214599609375,0.50213623046875,0.84228515625,-0.3076171875,0.3974609375,-17.6875,-3.5625,-7.625
0,70,80,118,170,184,42,50,34,0.68133544921875,0.149169921875,-0.513671875,0.49957275390625,0.857421875,-0.31884765625,0.40234375,-15.125,-1.75,-9.1875
0,71,84,125,170,185,49,55,34,0.6822509765625,0.14825439453125,-0.515380859375,0.49688720703125,0.849609375,-0.32373046875,0.3896484375,-16.0,-1.5625,-9.875
0,73,82,121,158,176,48,53,33,0.68328857421875,0.14764404296875,-0.51702880859375,0.493896484375,0.83349609375,-0.3212890625,0.421875,-16.625,-4.875,-12.625
0,71,80,129,178,213,53,55,33,0.68414306640625,0.14776611328125,-0.5185546875,0.4910888671875,0.83056640625,-0.3251953125,0.4482421875,-12.75,-8.75,-14.0625
0,65,76,139,163,186,53,53,31,0.68438720703125,0.14794921875,-0.52001953125,0.4891357421875,0.8203125,-0.35498046875,0.40478515625,-7.875,-7.625,-11.4375
0,62,74,184,163,168,52,43,30,0.684326171875,0.14947509765625,-0.5211181640625,0.48760986328125,0.81103515625,-0.32080078125,0.40771484375,-1.1875,-11.3125,-11.375
0,57,83,316,248,199,52,37,29,0.68402099609375,0.151611328125,-0.52178955078125,0.48663330078125,0.8427734375,-0.29638671875,0.4228515625,3.5,-11.8125,-8.8125
0,58,89,435,250,205,52,40,32,0.68341064453125,0.15325927734375,-0.5228271484375,0.48590087890625,0.8515625,-0.28759765625,0.39453125,1.75,-10.75,-4.875
0,56,96,515,249,176,48,36,33,0.6827392578125,0.15478515625,-0.52398681640625,0.485107421875,0.85986328125,-0.2880859375,0.3818359375,1.1875,-10.3125,-4.3125
0,53,97,523,250,173,51,42,36,0.68194580078125,0.15545654296875,-0.52520751953125,0.48468017578125,0.8681640625,-0.31689453125,0.3798828125,-0.625,-8.25,-1.8125
0,61,101,609,306,170,51,42,38,0.6805419921875,0.1572265625,-0.5257568359375,0.4854736328125,0.89013671875,-0.2783203125,0.38720703125,8.9375,-9.375,3.875
0,66,98,594,244,125,42,37,38,0.6796875,0.15765380859375,-0.526611328125,0.48553466796875,0.8935546875,-0.3017578125,0.3369140625,1.375,-2.75,2.1875
0,67,114,629,277,144,40,35,36,0.678955078125,0.158447265625,-0.52703857421875,0.48583984375,0.88818359375,-0.28125,0.3701171875,3.625,-4.0,2.5
0,75,119,582,276,138,40,34,37,0.67828369140625,0.15814208984375,-0.52838134765625,0.48553466796875,0.90283203125,-0.35498046875,0.2998046875,-1.875,0.0,0.125
0,73,156,621,302,136,36,26,35,0.67840576171875,0.15771484375,-0.52911376953125,0.484619140625,0.87890625,-0.30810546875,0.37548828125,-6.0,-0.9375,-2.3125
0,73,171,536,291,160,44,36,40,0.67791748046875,0.158203125,-0.52984619140625,0.48443603515625,0.892578125,-0.31640625,0.365234375,0.875,-4.125,-0.9375
0,69,186,525,339,182,51,39,39,0.67767333984375,0.15863037109375,-0.53045654296875,0.48388671875,0.8984375,-0.3349609375,0.35107421875,0.125,-1.9375,-3.625
0,68,179,472,311,160,52,41,41,0.67840576171875,0.158203125,-0.53106689453125,0.48236083984375,0.88232421875,-0.302734375,0.30859375,-6.9375,4.625,-6.25
0,60,173,504,303,157,52,41,40,0.678955078125,0.15838623046875,-0.5313720703125,0.481201171875,0.84326171875,-0.208984375,0.38330078125,-6.5625,-1.875,-1.8125
0,63,142,562,344,154,54,43,39,0.67864990234375,0.1583251953125,-0.531982421875,0.48095703125,0.86767578125,-0.24462890625,0.42919921875,-4.6875,-6.4375,3.5625
0,57,122,587,322,133,97,54,36,0.67852783203125,0.157958984375,-0.53173828125,0.48150634765625,0.89794921875,-0.30517578125,0.37451171875,1.1875,3.3125,3.625
0,58,90,570,274,108,192,85,40,0.67877197265625,0.15570068359375,-0.531982421875,0.48162841796875,0.84130859375,-0.34765625,0.3544921875,-7.25,7.4375,3.375
0,51,77,522,267,104,202,89,37,0.678466796875,0.15411376953125,-0.53204345703125,0.48248291015625,0.845703125,-0.36181640625,0.384765625,-1.9375,3.25,4.8125
0,44,72,485,265,98,218,101,38,0.6776123046875,0.154052734375,-0.531982421875,0.48382568359375,0.85107421875,-0.353515625,0.37353515625,6.375,-0.75,4.5625
0,40,62,349,168,91,241,118,40,0.67669677734375,0.15478515625,-0.53167724609375,0.48516845703125,0.85205078125,-0.3330078125,0.39453125,8.875,-3.5,3.125
0,35,58,282,125,89,235,118,37,0.67572021484375,0.155029296875,-0.53192138671875,0.48614501953125,0.85400390625,-0.34912109375,0.3779296875,5.5,-3.6875,3.0625
0,29,52,247,108,109,306,214,37,0.67510986328125,0.155517578125,-0.53167724609375,0.4871826171875,0.85595703125,-0.33642578125,0.3974609375,6.8125,-2.5,2.0
0,36,53,189,97,112,310,221,49,0.67449951171875,0.15631103515625,-0.53106689453125,0.4884033203125,0.849609375,-0.2958984375,0.4228515625,7.8125,-3.3125,3.8125
0,37,48,163,84,111,350,237,55,0.674072265625,0.15643310546875,-0.53076171875,0.48931884765625,0.83642578125,-0.28857421875,0.43994140625,2.9375,-3.875,4.4375
0,47,44,131,67,100,344,231,79,0.67376708984375,0.15582275390625,-0.5308837890625,0.48974609375,0.84521484375,-0.326171875,0.42626953125,-1.8125,-2.5625,2.9375
0,63,48,109,53,91,350,252,111,0.67376708984375,0.1549072265625,-0.53033447265625,0.49072265625,0.81884765625,-0.3583984375,0.40869140625,1.8125,3.1875,2.4375
0,71,51,107,46,54,240,178,122,0.673828125,0.15472412109375,-0.52911376953125,0.49188232421875,0.8486328125,-0.33447265625,0.39892578125,6.625,5.4375,1.8125
0,72,50,95,42,44,232,185,171,0.67431640625,0.154541015625,-0.52777099609375,0.4927978515625,0.85400390625,-0.31689453125,0.39697265625,5.5625,7.5,1.0
0,75,51,63,38,37,156,164,183,0.6746826171875,0.1541748046875,-0.52655029296875,0.49371337890625,0.8583984375,-0.3154296875,0.4091796875,4.5,7.0625,2.4375
0,76,55,47,40,38,151,172,224,0.6748046875,0.15350341796875,-0.5255126953125,0.49481201171875,0.87109375,-0.34130859375,0.392578125,4.25,7.8125,3.25
0,67,50,44,38,39,117,137,244,0.67462158203125,0.15301513671875,-0.524658203125,0.4962158203125,0.8515625,-0.33154296875,0.3984375,5.5625,5.375,5.625
0,70,49,39,37,39,113,120,246,0.67401123046875,0.153076171875,-0.5240478515625,0.49761962890625,0.86328125,-0.3056640625,0.39697265625,6.4375,1.875,7.0625
0,71,48,37,37,45,177,115,224,0.67352294921875,0.153076171875,-0.52362060546875,0.49871826171875,0.85791015625,-0.2919921875,0.39794921875,4.4375,1.5625,6.8125
0,73,46,40,40,47,199,111,220,0.67291259765625,0.15301513671875,-0.52337646484375,0.499755859375,0.84765625,-0.2802734375,0.39453125,3.1875,0.625,7.8125
0,68,38,37,38,46,201,98,174,0.6722412109375,0.15240478515625,-0.5233154296875,0.50091552734375,0.8662109375,-0.287109375,0.4013671875,1.0625,1.4375,10.0
0,66,39,36,37,44,216,99,126,0.671630859375,0.151123046875,-0.5228271484375,0.502685546875,0.8828125,-0.32958984375,0.4091796875,2.375,5.875,12.375
0,55,40,35,36,44,220,101,113,0.6708984375,0.14935302734375,-0.521484375,0.50555419921875,0.9052734375,-0.3544921875,0.40771484375,7.1875,12.5625,17.0
0,56,43,35,34,43,168,78,121,0.67010498046875,0.14715576171875,-0.5189208984375,0.50982666015625,0.91943359375,-0.35986328125,0.43994140625,12.5625,18.1875,22.9375
0,46,41,31,31,38,132,72,115,0.66912841796875,0.14434814453125,-0.51513671875,0.51580810546875,0.89501953125,-0.36474609375,0.49560546875,18.125,22.375,30.6875
0,44,46,35,37,37,120,65,127,0.66754150390625,0.140380859375,-0.5106201171875,0.52337646484375,0.849609375,-0.353515625,0.52880859375,19.9375,26.0,41.9375
0,66,61,36,36,38,99,71,175,0.6654052734375,0.13494873046875,-0.5057373046875,0.53216552734375,0.81494140625,-0.35498046875,0.5078125,19.6875,32.4375,52.1875
0,71,118,43,36,36,86,69,234,0.6639404296875,0.13311767578125,-0.50042724609375,0.5394287109375,1.12060546875,-0.38720703125,0.609375,28.375,29.0,40.0
0,70,154,43,36,29,82,68,222,0.6651611328125,0.1324462890625,-0.489990234375,0.54754638671875,0.7119140625,-0.408203125,0.6435546875,49.5625,39.75,16.1875
0,80,205,46,36,29,78,63,232,0.664306640625,0.12933349609375,-0.47698974609375,0.56072998046875,0.56884765625,-0.3974609375,0.67822265625,63.5,50.125,44.5
0,103,232,46,30,27,62,74,260,0.66278076171875,0.1282958984375,-0.4605712890625,0.57623291015625,0.560546875,-0.37451171875,0.6943359375,89.0625,57.6875,48.5625
0,101,344,50,32,28,52,63,235,0.65948486328125,0.12994384765625,-0.44451904296875,0.59210205078125,0.6494140625,-0.3095703125,0.69384765625,102.4375,56.0,55.125
0,102,346,49,34,29,50,66,221,0.65582275390625,0.130615234375,-0.427978515625,0.60797119140625,0.70751953125,-0.3037109375,0.66943359375,100.875,61.625,58.875
0,115,356,46,33,32,46,65,232,0.6531982421875,0.1282958984375,-0.41278076171875,0.62164306640625,0.6572265625,-0.27392578125,0.6142578125,76.75,67.6875,57.0625
0,109,349,44,31,31,41,66,221,0.6507568359375,0.12371826171875,-0.39837646484375,0.6343994140625,0.54541015625,-0.365234375,0.5869140625,68.5,70.8125,52.5
0,89,351,48,33,32,37,50,174,0.64739990234375,0.11981201171875,-0.3829345703125,0.64788818359375,0.46142578125,-0.41064453125,0.5986328125,79.9375,68.5,52.625
0,91,297,52,32,30,34,48,178,0.6427001953125,0.11865234375,-0.36590576171875,0.66253662109375,0.4580078125,-0.34326171875,0.60009765625,97.375,63.3125,58.0625
0,88,292,52,35,31,29,36,119,0.63677978515625,0.119140625,-0.34906005859375,0.67706298828125,0.49072265625,-0.3154296875,0.5810546875,101.0,57.8125,62.875
0,72,297,70,44,34,28,35,97,0.6297607421875,0.118896484375,-0.33447265625,0.69085693359375,0.50146484375,-0.30859375,0.5859375,91.3125,52.0625,66.5625
0,82,342,85,47,35,32,34,94,0.62127685546875,0.11834716796875,-0.32183837890625,0.70452880859375,0.50146484375,-0.3232421875,0.5673828125,84.9375,44.875,73.4375
0,84,358,105,67,37,33,37,95,0.611572265625,0.11865234375,-0.31097412109375,0.71771240234375,0.49658203125,-0.28125,0.591796875,78.4375,32.9375,77.625
0,73,343,125,86,58,40,39,75,0.60137939453125,0.11920166015625,-0.301025390625,0.7303466796875,0.49951171875,-0.23193359375,0.61865234375,72.5,27.5,80.25
0,69,353,132,90,59,40,39,65,0.59136962890625,0.11822509765625,-0.292724609375,0.74200439453125,0.51708984375,-0.244140625,0.642578125,58.5,28.625,79.8125
0,67,341,188,90,57,37,35,57,0.58111572265625,0.11663818359375,-0.287109375,0.75244140625,0.541015625,-0.28759765625,0.65625,45.3125,23.0,79.0625
0,80,338,202,100,64,37,39,62,0.56988525390625,0.1156005859375,-0.2838134765625,0.76239013671875,0.55322265625,-0.34375,0.6669921875,40.125,11.9375,80.5
0,83,348,237,105,69,36,38,58,0.55767822265625,0.11627197265625,-0.281005859375,0.77227783203125,0.57958984375,-0.3837890625,0.71142578125,45.1875,1.5625,81.9375
0,84,405,270,122,78,32,38,56,0.545654296875,0.11846923828125,-0.27734375,0.78179931640625,0.599609375,-0.345703125,0.7041015625,51.1875,-0.8125,78.5
0,89,426,304,138,88,36,41,58,0.53466796875,0.1209716796875,-0.27374267578125,0.79022216796875,0.62255859375,-0.32568359375,0.73388671875,47.8125,-0.875,71.625
0,95,456,452,150,99,40,41,55,0.5244140625,0.1236572265625,-0.26995849609375,0.7979736328125,0.63037109375,-0.38134765625,0.73974609375,51.0625,0.4375,63.5
0,96,585,597,171,104,48,46,55,0.5146484375,0.1279296875,-0.265625,0.8050537109375,0.62939453125,-0.34521484375,0.7890625,54.0,-6.5625,58.0625
0,114,646,671,176,120,53,51,64,0.50469970703125,0.1331787109375,-0.25958251953125,0.81243896484375,0.64599609375,-0.30859375,0.82373046875,63.0625,-6.125,58.125
0,123,713,698,164,113,55,55,70,0.49591064453125,0.1375732421875,-0.2537841796875,0.81890869140625,0.63720703125,-0.2421875,0.80908203125,54.0625,-2.0,53.125
0,123,787,734,160,109,55,54,69,0.4879150390625,0.14093017578125,-0.25103759765625,0.82403564453125,0.55029296875,-0.18212890625,0.8330078125,30.5625,-11.0,49.4375
0,119,807,655,153,105,54,54,67,0.48095703125,0.1427001953125,-0.252685546875,0.8272705078125,0.513671875,-0.24365234375,0.87744140625,4.4375,-20.125,42.8125
0,109,705,585,168,118,52,50,61,0.4749755859375,0.145751953125,-0.25628662109375,0.8291015625,0.54541015625,-0.28369140625,0.84521484375,-1.8125,-28.625,33.125
0,90,629,525,164,116,51,44,50,0.4697265625,0.149658203125,-0.2606201171875,0.830078125,0.56396484375,-0.29833984375,0.8251953125,-4.0,-33.4375,26.625
0,77,504,558,172,120,50,38,42,0.4654541015625,0.1534423828125,-0.26611328125,0.83001708984375,0.57177734375,-0.310546875,0.8017578125,-11.75,-35.125,20.125
0,74,346,554,199,152,51,40,43,0.4625244140625,0.15765380859375,-0.27099609375,0.82928466796875,0.56787109375,-0.302734375,0.76953125,-9.875,-33.8125,11.3125
0,69,233,649,205,174,56,40,43,0.460693359375,0.16217041015625,-0.2755126953125,0.82794189453125,0.57861328125,-0.32470703125,0.7392578125,-7.8125,-32.1875,2.75
0,58,233,609,190,185,57,39,39,0.459716796875,0.165771484375,-0.280029296875,0.82623291015625,0.56787109375,-0.33642578125,0.7353515625,-11.125,-28.3125,-1.6875
0,47,227,630,204,199,60,37,37,0.4591064453125,0.17010498046875,-0.28204345703125,0.82501220703125,0.537109375,-0.37939453125,0.80078125,3.875,-28.75,-8.125
0,38,276,713,232,202,60,38,36,0.4593505859375,0.17596435546875,-0.2823486328125,0.82354736328125,0.5576171875,-0.32470703125,0.712890625,14.1875,-26.5625,-14.8125
0,42,265,695,224,196,61,36,42,0.45953369140625,0.18206787109375,-0.2813720703125,0.82244873046875,0.5634765625,-0.31787109375,0.71484375,20.9375,-24.5,-15.375
0,45,268,652,245,200,58,36,42,0.46026611328125,0.18792724609375,-0.28057861328125,0.82098388671875,0.5654296875,-0.2783203125,0.74365234375,16.375,-24.8125,-17.25
0,50,286,658,274,208,56,36,43,0.4600830078125,0.19451904296875,-0.2783203125,0.8203125,0.54150390625,-0.2451171875,0.70947265625,26.125,-25.5,-13.375
0,73,320,647,284,192,51,38,49,0.45941162109375,0.201171875,-0.275390625,0.82012939453125,0.5703125,-0.208984375,0.732421875,29.4375,-24.1875,-9.0625
0,76,307,478,259,186,54,40,50,0.45831298828125,0.20635986328125,-0.27392578125,0.81988525390625,0.61328125,-0.275390625,0.7197265625,23.0625,-19.4375,-5.4375
0,91,353,500,257,174,59,40,58,0.45611572265625,0.2117919921875,-0.2706298828125,0.82086181640625,0.58740234375,-0.20263671875,0.7470703125,31.3125,-18.625,2.125
0,96,518,446,246,150,57,39,61,0.45294189453125,0.2166748046875,-0.26605224609375,0.82281494140625,0.5986328125,-0.17626953125,0.724609375,38.3125,-11.875,9.75
0,99,510,469,229,110,55,39,64,0.44873046875,0.2203369140625,-0.26226806640625,0.82537841796875,0.6416015625,-0.17236328125,0.68798828125,34.3125,-5.4375,19.75
0,85,510,411,200,100,54,37,62,0.443603515625,0.2237548828125,-0.25555419921875,0.82928466796875,0.62451171875,-0.16796875,0.798828125,49.125,-1.375,23.5
0,88,495,405,192,93,52,32,60,0.43798828125,0.22705078125,-0.24560546875,0.83441162109375,0.59765625,-0.17236328125,0.78466796875,67.9375,7.625,23.8125
0,81,476,332,184,76,43,29,53,0.43377685546875,0.22991943359375,-0.234130859375,0.839111328125,0.607421875,-0.07763671875,0.779296875,67.875,16.25,18.125
0,88,312,311,195,65,46,35,122,0.4320068359375,0.23028564453125,-0.2252197265625,0.84234619140625,0.60107421875,-0.02001953125,0.7880859375,41.5,23.5,11.1875
0,100,298,255,158,55,46,45,227,0.4322509765625,0.2265625,-0.22125244140625,0.84423828125,0.59423828125,-0.091796875,0.79736328125,7.4375,31.6875,6.6875
0,115,281,267,151,98,100,56,256,0.4327392578125,0.220458984375,-0.21905517578125,0.84619140625,0.54638671875,-0.212890625,0.82470703125,-1.375,36.5625,6.0
0,115,263,251,151,104,155,82,283,0.43170166015625,0.21514892578125,-0.21527099609375,0.84906005859375,0.4833984375,-0.27490234375,0.875,14.8125,31.1875,9.125
0,114,243,228,134,117,166,90,290,0.42999267578125,0.21282958984375,-0.21002197265625,0.851806640625,0.4853515625,-0.24462890625,0.89697265625,28.3125,19.375,8.125
0,114,223,206,69,116,170,95,277,0.42877197265625,0.213134765625,-0.20465087890625,0.85369873046875,0.5224609375,-0.177734375,0.89501953125,30.5625,8.8125,2.9375
0,125,201,154,58,119,177,94,210,0.42852783203125,0.214599609375,-0.20068359375,0.8543701171875,0.57177734375,-0.13037109375,0.8466796875,22.0625,4.3125,-2.125
0,119,167,122,56,92,178,104,204,0.429443359375,0.21563720703125,-0.19891357421875,0.85406494140625,0.55712890625,-0.06982421875,0.81201171875,4.9375,1.4375,-5.0625
0,138,157,108,50,128,184,121,186,0.43194580078125,0.2158203125,-0.1990966796875,0.85272216796875,0.51416015625,-0.09130859375,0.7939453125,-8.25,-0.375,-13.5
0,160,147,104,46,130,192,122,202,0.43536376953125,0.2158203125,-0.200439453125,0.85064697265625,0.50830078125,-0.1201171875,0.7783203125,-14.5625,-2.3125,-19.3125
0,159,104,86,44,133,203,124,198,0.43853759765625,0.2158203125,-0.202392578125,0.84857177734375,0.5341796875,-0.16064453125,0.755859375,-14.6875,-1.625,-18.625
0,144,151,78,47,152,198,129,192,0.44171142578125,0.21551513671875,-0.20355224609375,0.84674072265625,0.5263671875,-0.1494140625,0.7294921875,-11.875,2.5625,-18.25
0,137,206,56,47,152,194,117,161,0.4454345703125,0.21466064453125,-0.2034912109375,0.844970703125,0.5,-0.06494140625,0.76806640625,-13.25,5.875,-18.8125
0,120,222,59,44,121,155,86,139,0.44970703125,0.21240234375,-0.20465087890625,0.843017578125,0.45556640625,-0.05322265625,0.7939453125,-24.3125,6.875,-18.625
0,84,234,58,43,103,156,99,98,0.4556884765625,0.20867919921875,-0.20892333984375,0.8397216796875,0.48681640625,-0.09130859375,0.8212890625,-45.3125,7.0,-25.875
0,70,259,57,53,106,147,94,86,0.46337890625,0.20416259765625,-0.21661376953125,0.83465576171875,0.55517578125,-0.13134765625,0.8095703125,-66.3125,6.125,-33.9375
0,65,263,52,53,83,148,84,77,0.47186279296875,0.19873046875,-0.226318359375,0.82861328125,0.5693359375,-0.16796875,0.81884765625,-79.3125,5.0,-37.4375
0,66,233,46,62,77,154,88,75,0.480224609375,0.19342041015625,-0.2366943359375,0.8221435546875,0.56201171875,-0.201171875,0.8173828125,-81.9375,1.375,-38.1875
0,55,215,45,86,92,162,87,69,0.48883056640625,0.188720703125,-0.247314453125,0.81500244140625,0.58349609375,-0.24072265625,0.81640625,-81.1875,-1.875,-42.5
0,58,199,47,93,107,152,67,61,0.49761962890625,0.18475341796875,-0.25701904296875,0.80755615234375,0.60693359375,-0.26123046875,0.80908203125,-75.0,-1.4375,-46.125
0,59,162,46,92,103,154,80,51,0.5068359375,0.18145751953125,-0.26605224609375,0.799560546875,0.60009765625,-0.27392578125,0.74462890625,-70.1875,-1.25,-51.6875
0,54,91,47,92,100,158,81,48,0.5162353515625,0.1785888671875,-0.275634765625,0.7908935546875,0.56591796875,-0.3447265625,0.740234375,-69.3125,-8.125,-57.5
0,48,56,49,102,124,142,95,35,0.5255126953125,0.1787109375,-0.28411865234375,0.78173828125,0.587890625,-0.39697265625,0.72509765625,-53.5,-18.0625,-66.25
0,46,46,45,108,134,129,93,28,0.53436279296875,0.182861328125,-0.2904052734375,0.77239990234375,0.6181640625,-0.3681640625,0.7119140625,-32.75,-29.25,-72.5625
0,42,44,46,113,140,116,90,25,0.542724609375,0.18963623046875,-0.2952880859375,0.7630615234375,0.63427734375,-0.32958984375,0.7158203125,-20.0,-38.0,-74.9375
0,38,41,48,117,141,100,74,23,0.55078125,0.1986083984375,-0.29937744140625,0.75335693359375,0.65478515625,-0.283203125,0.6943359375,-11.9375,-45.4375,-77.8125
0,41,42,54,133,151,97,77,25,0.55914306640625,0.20880126953125,-0.30340576171875,0.74273681640625,0.66455078125,-0.24169921875,0.6865234375,-10.875,-51.6875,-83.5625
0,41,40,54,132,137,78,48,25,0.56634521484375,0.22015380859375,-0.30841064453125,0.7318115234375,0.7255859375,-0.21337890625,0.67626953125,-11.5,-60.625,-79.0625
0,43,40,58,137,129,67,46,26,0.5733642578125,0.232421875,-0.31329345703125,0.720458984375,0.7099609375,-0.15185546875,0.642578125,-10.625,-65.875,-80.0
0,41,39,61,137,120,68,46,28,0.57928466796875,0.2452392578125,-0.318359375,0.7091064453125,0.73486328125,-0.14111328125,0.6435546875,-7.75,-71.625,-76.375
0,40,38,86,144,122,63,44,26,0.58404541015625,0.25775146484375,-0.32403564453125,0.6981201171875,0.76513671875,-0.1220703125,0.63037109375,-9.5,-73.9375,-68.9375
0,37,36,113,173,126,63,40,27,0.58782958984375,0.27044677734375,-0.3289794921875,0.68780517578125,0.74951171875,-0.11279296875,0.64404296875,-3.25,-76.25,-64.875
0,36,38,122,172,120,59,39,26,0.5902099609375,0.28302001953125,-0.3328857421875,0.6787109375,0.77392578125,-0.0859375,0.61328125,4.875,-72.125,-56.25
0,34,39,143,154,105,59,37,27,0.59210205078125,0.2950439453125,-0.33673095703125,0.66998291015625,0.76171875,-0.0625,0.60595703125,4.1875,-72.25,-51.375
0,33,39,158,210,108,54,32,27,0.593017578125,0.306884765625,-0.34075927734375,0.6617431640625,0.73681640625,-0.03857421875,0.6025390625,4.9375,-75.6875,-45.4375
0,35,45,192,211,109,55,34,28,0.592529296875,0.31915283203125,-0.3443603515625,0.654541015625,0.75390625,-0.02783203125,0.62353515625,12.6875,-78.9375,-38.0625
0,31,47,196,190,90,37,25,26,0.5894775390625,0.33172607421875,-0.34771728515625,0.6492919921875,0.78076171875,-0.048828125,0.587890625,24.5625,-79.3125,-24.625
0,34,53,231,197,92,37,26,29,0.5848388671875,0.34552001953125,-0.34942626953125,0.64532470703125,0.7724609375,0.0224609375,0.58984375,38.1875,-81.4375,-16.4375
0,33,53,227,224,106,35,29,31,0.57843017578125,0.3597412109375,-0.35076904296875,0.642578125,0.7998046875,0.0595703125,0.55078125,46.4375,-81.0,-5.9375
0,36,52,221,172,88,36,28,28,0.57049560546875,0.3726806640625,-0.35333251953125,0.640869140625,0.80712890625,0.0400390625,0.533203125,43.875,-82.0625,6.6875
0,36,48,218,167,87,35,26,29,0.5606689453125,0.3851318359375,-0.35699462890625,0.64019775390625,0.81298828125,0.009765625,0.5126953125,45.5625,-85.6875,18.625
0,38,46,234,186,92,37,27,29,0.5489501953125,0.39678955078125,-0.361083984375,0.640869140625,0.826171875,-0.02001953125,0.486328125,49.375,-84.75,30.625
0,47,40,203,176,89,35,28,27,0.53619384765625,0.40728759765625,-0.3651123046875,0.642822265625,0.8359375,-0.0087890625,0.46533203125,50.5625,-79.4375,41.625
0,48,39,195,138,69,32,26,24,0.52362060546875,0.41650390625,-0.36920166015625,0.64495849609375,0.828125,0.0791015625,0.4228515625,43.4375,-73.375,50.5625
0,48,41,213,134,70,32,27,25,0.511474609375,0.4232177734375,-0.37469482421875,0.64715576171875,0.796875,0.01806640625,0.408203125,31.625,-68.625,54.4375
0,46,40,197,130,66,33,26,23,0.498779296875,0.42779541015625,-0.38116455078125,0.6502685546875,0.8291015625,0.0087890625,0.38134765625,25.0,-60.5,66.6875
0,44,40,231,79,43,54,36,23,0.4842529296875,0.4306640625,-0.388916015625,0.65472412109375,0.84033203125,-0.06494140625,0.35693359375,23.8125,-58.125,80.5625
0,33,40,247,76,39,58,38,23,0.46783447265625,0.43194580078125,-0.39715576171875,0.66082763671875,0.85595703125,-0.09375,0.33203125,26.0,-52.4375,97.0
0,30,40,260,73,39,59,40,23,0.45050048828125,0.43170166015625,-0.40582275390625,0.6678466796875,0.8330078125,-0.10400390625,0.2919921875,25.0625,-44.9375,107.125
0,33,40,245,74,39,65,44,24,0.4337158203125,0.4298095703125,-0.41387939453125,0.67510986328125,0.82568359375,-0.11181640625,0.29248046875,22.0625,-35.3125,108.0625
0,36,40,235,68,35,67,47,24,0.41796875,0.42608642578125,-0.42083740234375,0.68310546875,0.84423828125,-0.15869140625,0.2763671875,21.4375,-20.875,107.4375
0,37,40,190,62,35,65,40,23,0.402587890625,0.42047119140625,-0.42706298828125,0.69183349609375,0.86474609375,-0.1845703125,0.28759765625,20.375,-9.25,110.6875
0,36,37,165,57,34,63,39,24,0.38702392578125,0.41351318359375,-0.432861328125,0.7012939453125,0.86767578125,-0.2177734375,0.267578125,21.3125,-1.0,115.375
0,36,35,167,52,35,64,47,25,0.37176513671875,0.4056396484375,-0.4378662109375,0.7109375,0.87939453125,-0.25439453125,0.24267578125,22.375,5.875,114.8125
0,32,33,166,46,33,58,44,23,0.35736083984375,0.3966064453125,-0.44268798828125,0.72039794921875,0.90966796875,-0.32080078125,0.251953125,18.3125,13.125,113.5
0,27,33,179,44,32,55,42,24,0.34417724609375,0.38580322265625,-0.44720458984375,0.7298583984375,0.92626953125,-0.36474609375,0.25634765625,13.4375,24.4375,112.125
0,25,30,171,36,32,43,47,25,0.33221435546875,0.3736572265625,-0.4515380859375,0.73895263671875,0.88427734375,-0.39208984375,0.25732421875,8.0,32.5,109.375
0,25,37,187,80,56,43,47,22,0.320556640625,0.3612060546875,-0.45562744140625,0.74774169921875,0.8564453125,-0.4384765625,0.2451171875,7.1875,35.0,107.5625
0,26,40,204,88,55,42,38,25,0.30828857421875,0.34869384765625,-0.459716796875,0.75628662109375,0.84814453125,-0.47265625,0.25244140625,7.3125,33.0,109.5
0,24,44,221,88,55,40,37,25,0.295166015625,0.3363037109375,-0.46435546875,0.76422119140625,0.85400390625,-0.53125,0.236328125,6.375,28.5625,113.3125
0,36,51,215,95,57,38,38,32,0.28131103515625,0.32427978515625,-0.46856689453125,0.77203369140625,0.8515625,-0.58251953125,0.24072265625,9.875,25.75,114.25
0,47,241,260,117,64,36,37,38,0.267578125,0.312255859375,-0.47222900390625,0.7796630859375,0.837890625,-0.58935546875,0.2138671875,12.125,27.25,112.875
0,51,296,298,139,51,35,35,42,0.24346923828125,0.2872314453125,-0.48162841796875,0.79132080078125,0.80224609375,-0.76220703125,0.17822265625,2.25,36.4375,99.75
0,73,336,349,163,67,39,42,52,0.23284912109375,0.27545166015625,-0.48443603515625,0.7969970703125,0.8095703125,-0.78955078125,0.197265625,16.1875,42.0,92.9375
0,106,425,470,171,70,43,49,67,0.22100830078125,0.26470947265625,-0.48095703125,0.8060302734375,0.76025390625,-0.76318359375,0.31640625,51.5625,42.0625,91.25
0,145,484,536,173,70,45,54,80,0.2066650390625,0.25360107421875,-0.47430419921875,0.81732177734375,0.67626953125,-0.654296875,0.3427734375,70.4375,38.875,101.9375
0,151,507,597,277,134,54,54,82,0.19146728515625,0.24188232421875,-0.46875,0.82769775390625,0.58984375,-0.55810546875,0.37890625,62.1875,35.75,108.5625
0,166,517,611,274,139,58,60,89,0.17877197265625,0.22979736328125,-0.465087890625,0.83599853515625,0.5478515625,-0.65283203125,0.40283203125,45.5625,40.9375,98.375
0,170,575,619,266,142,58,57,89,0.168701171875,0.21661376953125,-0.46478271484375,0.84173583984375,0.4345703125,-0.68359375,0.47314453125,15.375,41.25,85.3125
0,160,554,625,367,168,64,57,84,0.1600341796875,0.203857421875,-0.4647216796875,0.84661865234375,0.31640625,-0.75,0.4697265625,13.375,39.0625,70.4375
0,146,571,665,394,200,75,59,82,0.15380859375,0.19232177734375,-0.46356201171875,0.85113525390625,0.36328125,-0.80419921875,0.49560546875,16.9375,41.9375,55.6875
0,153,514,602,354,221,83,64,84,0.14971923828125,0.18304443359375,-0.46221923828125,0.8546142578125,0.41845703125,-0.82763671875,0.46630859375,17.3125,39.5,41.375
0,139,518,582,347,224,84,59,78,0.14599609375,0.17437744140625,-0.46234130859375,0.8570556640625,0.361328125,-0.8857421875,0.48046875,9.3125,33.3125,35.25
0,128,448,560,405,240,87,60,75,0.14141845703125,0.1678466796875,-0.45904541015625,0.86083984375,0.2783203125,-0.84521484375,0.58544921875,25.75,19.625,29.4375
0,120,418,547,348,233,84,57,68,0.139404296875,0.16351318359375,-0.45361328125,0.8648681640625,0.36767578125,-0.8076171875,0.53564453125,38.0625,22.9375,14.9375
0,96,397,489,314,208,75,49,54,0.1402587890625,0.160400390625,-0.45037841796875,0.86700439453125,0.4169921875,-0.75439453125,0.5458984375,19.0625,22.5625,2.6875
0,73,407,524,293,160,66,47,46,0.14141845703125,0.15704345703125,-0.44842529296875,0.868408203125,0.36279296875,-0.80517578125,0.5771484375,10.5,20.125,-1.75
0,67,375,526,292,159,64,51,44,0.142333984375,0.1549072265625,-0.445068359375,0.87042236328125,0.39208984375,-0.86962890625,0.5859375,23.25,16.375,-4.625
0,60,356,522,205,128,57,46,39,0.14263916015625,0.1544189453125,-0.43780517578125,0.8741455078125,0.39404296875,-0.85009765625,0.619140625,47.5625,11.0,-7.3125
0,58,343,443,154,111,59,48,39,0.1427001953125,0.1553955078125,-0.42767333984375,0.87896728515625,0.4208984375,-0.77294921875,0.62353515625,64.4375,7.875,-8.3125
0,50,254,377,160,118,61,51,39,0.14373779296875,0.15771484375,-0.41455078125,0.8846435546875,0.46923828125,-0.69580078125,0.60888671875,80.9375,9.5,-14.8125
0,47,224,334,137,99,54,44,39,0.14630126953125,0.1602783203125,-0.40185546875,0.88958740234375,0.49169921875,-0.578125,0.62744140625,72.0,11.9375,-19.6875
0,46,195,343,132,88,53,37,36,0.14892578125,0.16204833984375,-0.39141845703125,0.89349365234375,0.49267578125,-0.6474609375,0.640625,60.8125,13.0625,-19.6875
0,44,212,321,115,86,56,41,37,0.15087890625,0.16326904296875,-0.38134765625,0.89727783203125,0.47509765625,-0.6748046875,0.669921875,60.5,12.625,-16.9375
0,43,258,356,102,97,50,42,40,0.15191650390625,0.1651611328125,-0.36822509765625,0.9022216796875,0.47216796875,-0.6572265625,0.66552734375,81.4375,11.875,-15.9375
0,42,275,360,93,87,57,41,37,0.15185546875,0.166748046875,-0.351806640625,0.908447265625,0.49853515625,-0.6025390625,0.64453125,100.0625,13.0,-12.25
0,38,290,337,89,83,64,59,35,0.15093994140625,0.168212890625,-0.33428955078125,0.9149169921875,0.509765625,-0.5341796875,0.68115234375,106.5,13.6875,-8.125
0,41,339,321,87,87,68,67,35,0.14990234375,0.1689453125,-0.316162109375,0.92138671875,0.49658203125,-0.5224609375,0.68115234375,109.4375,17.4375,-7.0
0,43,327,307,93,89,87,70,34,0.14898681640625,0.16888427734375,-0.2974853515625,0.927734375,0.45703125,-0.47802734375,0.67919921875,111.3125,22.4375,-7.125
0,46,346,231,93,70,105,78,37,0.1478271484375,0.16864013671875,-0.2789306640625,0.9337158203125,0.41748046875,-0.46044921875,0.73876953125,110.125,21.25,-6.0625
0,47,345,214,104,78,125,86,39,0.14739990234375,0.16864013671875,-0.2625732421875,0.93853759765625,0.4287109375,-0.466796875,0.734375,98.875,21.8125,-8.9375
0,55,448,245,108,85,126,76,42,0.14764404296875,0.16729736328125,-0.2449951171875,0.9434814453125,0.4384765625,-0.435546875,0.73876953125,101.6875,28.625,-11.875
0,61,474,223,105,83,128,71,44,0.1490478515625,0.16607666015625,-0.2294921875,0.94732666015625,0.4228515625,-0.40576171875,0.72802734375,91.0,30.6875,-16.9375
0,64,564,271,104,82,118,70,48,0.15240478515625,0.1644287109375,-0.21624755859375,0.9501953125,0.37158203125,-0.31103515625,0.791015625,69.6875,28.5,-25.0625
0,61,556,299,95,81,107,64,43,0.157958984375,0.1619873046875,-0.20501708984375,0.95220947265625,0.3681640625,-0.1787109375,0.79931640625,47.875,33.3125,-31.8125
0,62,585,296,83,78,98,55,43,0.1650390625,0.158935546875,-0.2017822265625,0.95220947265625,0.396484375,-0.2265625,0.759765625,4.4375,32.1875,-34.8125
0,55,507,289,76,83,212,83,39,0.17266845703125,0.15533447265625,-0.20306396484375,0.951171875,0.38671875,-0.33544921875,0.80908203125,-17.0,29.25,-36.75
0,53,483,276,73,109,301,121,38,0.1793212890625,0.15069580078125,-0.2041015625,0.95050048828125,0.28515625,-0.43115234375,0.845703125,-10.375,27.3125,-34.9375
0,54,375,224,64,125,317,146,45,0.18511962890625,0.1475830078125,-0.20111083984375,0.95050048828125,0.2392578125,-0.43798828125,0.8759765625,14.8125,19.5,-36.125
0,52,330,170,62,144,386,162,45,0.1920166015625,0.14727783203125,-0.1942138671875,0.95062255859375,0.2900390625,-0.369140625,0.8828125,34.875,13.0,-45.8125
0,51,263,159,56,141,396,170,45,0.20062255859375,0.14898681640625,-0.18658447265625,0.9500732421875,0.33935546875,-0.25830078125,0.87939453125,33.4375,7.0625,-55.375
0,50,265,110,49,148,353,161,44,0.2115478515625,0.15087890625,-0.18212890625,0.94830322265625,0.3798828125,-0.20751953125,0.85400390625,11.0,7.0,-64.9375
0,42,218,98,53,149,289,143,42,0.22418212890625,0.15216064453125,-0.18060302734375,0.9454345703125,0.408203125,-0.23828125,0.87548828125,-6.0625,8.1875,-73.25
0,32,222,86,60,153,335,140,33,0.23834228515625,0.152587890625,-0.1812744140625,0.9417724609375,0.439453125,-0.283203125,0.8544921875,-17.6875,13.375,-80.5625
0,31,227,75,65,181,306,163,36,0.25238037109375,0.1522216796875,-0.18157958984375,0.9381103515625,0.4140625,-0.33935546875,0.845703125,-12.6875,16.125,-81.1875
0,35,260,92,64,191,311,168,34,0.2659912109375,0.15203857421875,-0.17877197265625,0.9349365234375,0.36474609375,-0.31884765625,0.904296875,3.375,15.0625,-82.125
0,41,242,83,62,184,317,173,35,0.28033447265625,0.152099609375,-0.17376708984375,0.931640625,0.37744140625,-0.29443359375,0.87646484375,14.9375,19.1875,-88.0625
0,64,242,86,56,172,356,188,48,0.29693603515625,0.1519775390625,-0.1678466796875,0.9276123046875,0.369140625,-0.19775390625,0.89599609375,11.25,22.4375,-99.6875
0,78,308,101,48,171,325,273,121,0.3150634765625,0.1512451171875,-0.163818359375,0.9224853515625,0.37646484375,-0.19921875,0.89794921875,-0.6875,23.625,-107.9375
0,80,312,101,40,135,278,260,123,0.33477783203125,0.14935302734375,-0.16180419921875,0.9161376953125,0.42626953125,-0.28759765625,0.85546875,-14.1875,27.6875,-116.125
0,78,287,83,37,136,269,257,132,0.35546875,0.14630126953125,-0.1607666015625,0.90899658203125,0.40283203125,-0.2724609375,0.85400390625,-23.125,31.5625,-121.0625
0,84,283,85,39,158,293,264,136,0.3759765625,0.14337158203125,-0.15985107421875,0.9013671875,0.35302734375,-0.22216796875,0.8564453125,-24.875,29.375,-120.75
0,68,259,81,40,171,266,286,136,0.39666748046875,0.14056396484375,-0.15948486328125,0.8929443359375,0.34423828125,-0.21826171875,0.86328125,-28.0,27.3125,-123.3125
0,56,149,56,42,160,259,231,88,0.41839599609375,0.1373291015625,-0.16015625,0.88336181640625,0.33203125,-0.23388671875,0.861328125,-36.0625,26.6875,-129.875
0,62,159,52,41,164,261,228,86,0.44024658203125,0.13421630859375,-0.16107177734375,0.873046875,0.31591796875,-0.244140625,0.8779296875,-37.1875,24.625,-132.5625
0,60,146,50,41,164,270,277,75,0.46185302734375,0.13189697265625,-0.16180419921875,0.86199951171875,0.31787109375,-0.21533203125,0.88818359375,-35.5,20.5625,-134.0
0,73,165,53,43,138,287,384,248,0.484130859375,0.12994384765625,-0.1627197265625,0.84979248046875,0.3173828125,-0.1748046875,0.95703125,-37.625,17.0625,-140.0
0,79,173,55,42,115,263,391,262,0.50732421875,0.1287841796875,-0.1640625,0.8360595703125,0.3447265625,-0.24658203125,0.91357421875,-38.375,12.9375,-149.8125
0,78,173,56,44,160,253,377,271,0.5303955078125,0.12847900390625,-0.16510009765625,0.82147216796875,0.35400390625,-0.26611328125,0.89501953125,-34.375,9.0,-152.875
0,76,145,57,42,154,257,374,276,0.55218505859375,0.129150390625,-0.165771484375,0.8067626953125,0.3359375,-0.1806640625,0.88720703125,-30.25,3.5,-148.1875
0,82,141,57,40,143,234,346,279,0.57269287109375,0.130126953125,-0.1671142578125,0.79193115234375,0.32275390625,-0.064453125,0.8759765625,-33.3125,-1.0625,-141.4375
0,81,100,50,44,148,294,268,182,0.5926513671875,0.13006591796875,-0.17095947265625,0.7762451171875,0.3310546875,-0.02587890625,0.9384765625,-49.0625,-6.4375,-138.5625
0,90,81,47,45,148,316,306,182,0.61224365234375,0.12847900390625,-0.17816162109375,0.75946044921875,0.361328125,-0.0078125,0.95849609375,-70.3125,-11.75,-136.75
0,87,81,45,37,87,310,311,163,0.631591796875,0.12506103515625,-0.1876220703125,0.74176025390625,0.41357421875,-0.1064453125,0.92529296875,-85.8125,-12.0,-135.9375
0,87,77,43,37,67,307,317,159,0.650146484375,0.1212158203125,-0.197021484375,0.7236328125,0.39990234375,-0.22607421875,0.88525390625,-85.125,-11.25,-134.4375
0,84,78,44,39,65,319,316,152,0.66754150390625,0.1195068359375,-0.205078125,0.70562744140625,0.37841796875,-0.2841796875,0.8935546875,-69.875,-17.0625,-133.0
0,70,76,45,36,89,211,279,105,0.68365478515625,0.1212158203125,-0.211669921875,0.68780517578125,0.38427734375,-0.26220703125,0.89013671875,-50.0625,-26.6875,-132.0625
0,57,68,47,37,91,177,182,60,0.69854736328125,0.1253662109375,-0.2174072265625,0.6700439453125,0.40966796875,-0.20703125,0.87939453125,-37.0625,-34.0625,-130.375
0,60,71,47,37,92,170,166,56,0.7127685546875,0.13079833984375,-0.22332763671875,0.65185546875,0.4267578125,-0.16943359375,0.87939453125,-32.8125,-41.0625,-130.5
0,64,77,48,40,92,161,146,42,0.725830078125,0.13671875,-0.23028564453125,0.633544921875,0.458984375,-0.126953125,0.89501953125,-34.9375,-48.6875,-126.5
0,61,75,50,43,101,131,120,43,0.7374267578125,0.1431884765625,-0.23736572265625,0.6158447265625,0.4931640625,-0.07421875,0.861328125,-31.25,-52.125,-118.5625
0,57,68,45,47,72,117,87,38,0.74835205078125,0.14886474609375,-0.24432373046875,0.59832763671875,0.4951171875,-0.03564453125,0.83544921875,-33.8125,-49.5625,-114.4375
0,57,73,43,49,68,107,85,29,0.75933837890625,0.15167236328125,-0.25244140625,0.5802001953125,0.51708984375,-0.0234375,0.7939453125,-51.1875,-45.0,-112.0625
0,57,73,44,53,71,109,74,30,0.7701416015625,0.15179443359375,-0.26300048828125,0.56085205078125,0.54638671875,-0.08056640625,0.79052734375,-71.6875,-47.8125,-111.5
0,55,72,47,54,72,104,73,30,0.7799072265625,0.1519775390625,-0.2750244140625,0.541259765625,0.5595703125,-0.16455078125,0.79931640625,-74.5,-56.625,-108.625
0,58,73,48,95,86,97,72,29,0.78753662109375,0.1549072265625,-0.28643798828125,0.52313232421875,0.55615234375,-0.19921875,0.791015625,-55.75,-64.5625,-101.125
0,56,82,49,112,88,91,70,28,0.79302978515625,0.1597900390625,-0.2977294921875,0.5068359375,0.54736328125,-0.1533203125,0.78662109375,-37.625,-76.5625,-92.6875
0,59,78,54,142,95,79,52,30,0.796875,0.1671142578125,-0.30877685546875,0.4915771484375,0.59130859375,-0.091796875,0.74951171875,-25.6875,-82.3125,-85.5
0,58,74,54,153,99,55,44,30,0.7999267578125,0.17388916015625,-0.32037353515625,0.4765625,0.63037109375,-0.05859375,0.6953125,-29.5,-81.6875,-79.75
0,61,69,53,153,97,48,39,30,0.80242919921875,0.17901611328125,-0.33294677734375,0.46160888671875,0.64501953125,-0.0390625,0.68359375,-39.6875,-83.25,-73.25
0,60,67,53,178,83,44,34,29,0.80389404296875,0.18316650390625,-0.34625244140625,0.447509765625,0.6640625,-0.03759765625,0.6767578125,-43.625,-85.9375,-64.25
0,65,64,54,202,82,45,35,31,0.80450439453125,0.18597412109375,-0.35980224609375,0.434326171875,0.68408203125,-0.048828125,0.66552734375,-46.9375,-84.625,-55.4375
0,60,68,65,207,75,42,31,31,0.8046875,0.18780517578125,-0.37298583984375,0.42193603515625,0.66357421875,-0.0654296875,0.61181640625,-47.6875,-80.75,-50.0625
0,60,76,73,218,78,46,32,31,0.80438232421875,0.18890380859375,-0.3858642578125,0.41021728515625,0.6279296875,-0.07763671875,0.59130859375,-47.75,-79.6875,-45.5625
0,52,76,75,225,88,52,36,32,0.8031005859375,0.189208984375,-0.3995361328125,0.3994140625,0.6455078125,-0.08203125,0.56494140625,-50.625,-82.0625,-36.5625
0,57,83,72,207,91,54,35,35,0.80096435546875,0.18927001953125,-0.413330078125,0.38946533203125,0.6748046875,-0.08544921875,0.56689453125,-48.75,-83.875,-29.875
0,57,78,79,189,103,57,36,34,0.79815673828125,0.189453125,-0.426513671875,0.38092041015625,0.67919921875,-0.0830078125,0.5458984375,-43.3125,-81.875,-22.6875
0,61,77,196,207,112,58,36,34,0.794677734375,0.1895751953125,-0.43951416015625,0.37322998046875,0.69091796875,-0.03271484375,0.51123046875,-42.75,-80.1875,-14.5
0,65,75,234,211,110,56,37,34,0.79095458984375,0.18646240234375,-0.45391845703125,0.3653564453125,0.6748046875,-0.11181640625,0.46484375,-57.9375,-80.375,-9.1875
0,72,79,261,208,106,56,36,36,0.7864990234375,0.18316650390625,-0.46783447265625,0.35906982421875,0.6865234375,-0.1455078125,0.50146484375,-52.25,-81.5,-2.375
0,71,75,277,195,96,52,37,33,0.78094482421875,0.18170166015625,-0.4808349609375,0.354736328125,0.76416015625,-0.115234375,0.47998046875,-37.3125,-79.25,5.5625
0,67,73,331,240,96,46,36,32,0.77569580078125,0.1796875,-0.4931640625,0.3504638671875,0.80615234375,-0.0419921875,0.46728515625,-41.25,-73.875,11.25
0,65,80,383,272,110,47,38,31,0.7705078125,0.17596435546875,-0.50567626953125,0.345703125,0.833984375,-0.08056640625,0.4453125,-49.6875,-71.0625,12.0625
0,71,76,377,274,110,45,34,31,0.7657470703125,0.16937255859375,-0.51824951171875,0.34100341796875,0.814453125,-0.1953125,0.431640625,-60.25,-65.375,13.625
0,66,74,373,273,108,41,34,30,0.760009765625,0.1640625,-0.5302734375,0.3380126953125,0.82861328125,-0.17333984375,0.43017578125,-48.625,-67.75,20.6875
0,64,72,388,277,110,40,32,28,0.75341796875,0.16094970703125,-0.54144287109375,0.33648681640625,0.88232421875,-0.13134765625,0.439453125,-34.0625,-70.125,25.125
0,71,75,366,254,111,44,34,29,0.7467041015625,0.15814208984375,-0.55206298828125,0.33551025390625,0.93115234375,-0.109375,0.42919921875,-30.9375,-68.375,28.8125
0,69,75,318,253,116,44,34,28,0.7401123046875,0.15496826171875,-0.56201171875,0.3350830078125,0.92822265625,-0.13232421875,0.39453125,-29.3125,-62.5625,30.9375
0,58,74,333,286,126,42,34,29,0.73333740234375,0.1505126953125,-0.57232666015625,0.334716796875,0.9033203125,-0.2099609375,0.322265625,-33.0625,-59.75,31.4375
0,55,72,321,288,133,39,32,28,0.725830078125,0.14630126953125,-0.58294677734375,0.33441162109375,0.92236328125,-0.2080078125,0.2734375,-31.9375,-61.75,33.6875
0,51,69,317,281,132,59,54,29,0.718017578125,0.141357421875,-0.59393310546875,0.33416748046875,0.92431640625,-0.23486328125,0.25244140625,-35.1875,-62.9375,36.8125
0,41,70,337,268,137,224,111,33,0.70941162109375,0.13677978515625,-0.6055908203125,0.33349609375,0.935546875,-0.1953125,0.24560546875,-36.75,-70.1875,39.375
0,40,55,280,200,119,292,181,41,0.70068359375,0.1329345703125,-0.6170654296875,0.33258056640625,1.00048828125,-0.23193359375,0.25146484375,-34.625,-73.1875,35.5625
0,36,46,241,108,108,343,207,41,0.69183349609375,0.13092041015625,-0.6265869140625,0.33404541015625,1.03857421875,-0.330078125,0.25341796875,-14.375,-68.3125,32.0625
0,41,42,238,96,103,373,222,46,0.68389892578125,0.1326904296875,-0.6322021484375,0.33905029296875,1.0771484375,-0.37109375,0.22998046875,20.375,-53.4375,26.8125
0,40,44,199,97,103,379,223,47,0.68048095703125,0.13763427734375,-0.632080078125,0.34417724609375,1.09619140625,-0.27685546875,0.28466796875,38.9375,-23.9375,9.125
0,39,41,103,71,80,323,207,44,0.68389892578125,0.14129638671875,-0.626953125,0.34521484375,1.078125,-0.19970703125,0.294921875,23.125,19.0625,-15.0625
0,40,40,100,113,88,267,150,37,0.6927490234375,0.1431884765625,-0.6181640625,0.34271240234375,1.056640625,-0.2119140625,0.27294921875,7.0625,56.625,-38.6875
0,42,44,106,123,81,203,115,36,0.70440673828125,0.14398193359375,-0.60675048828125,0.3389892578125,1.0478515625,-0.33544921875,0.22314453125,4.5625,83.3125,-56.9375
0,45,41,104,133,74,151,91,31,0.71820068359375,0.144287109375,-0.59234619140625,0.33538818359375,1.05078125,-0.3369140625,0.1953125,6.1875,104.125,-56.625
0,51,38,118,135,76,130,82,31,0.7315673828125,0.14508056640625,-0.576171875,0.33428955078125,1.0107421875,-0.26806640625,0.18115234375,20.375,111.4375,-47.5
0,53,38,119,132,76,136,67,31,0.7445068359375,0.14666748046875,-0.55859375,0.3348388671875,1.03759765625,-0.1435546875,0.224609375,31.6875,116.25,-41.8125
0,54,40,108,128,59,133,68,30,0.75775146484375,0.14813232421875,-0.53948974609375,0.33575439453125,1.02099609375,-0.05712890625,0.32666015625,34.25,123.25,-40.75
0,57,36,109,151,65,130,68,28,0.77142333984375,0.1484375,-0.5189208984375,0.3369140625,0.9716796875,-0.052734375,0.330078125,32.375,133.8125,-38.4375
0,56,38,132,145,65,120,57,24,0.78436279296875,0.1470947265625,-0.49798583984375,0.33929443359375,0.88525390625,-0.0419921875,0.34716796875,30.4375,137.5625,-27.5
0,51,42,138,153,72,117,52,23,0.7950439453125,0.14593505859375,-0.47808837890625,0.34356689453125,0.8544921875,-0.0009765625,0.4287109375,35.75,126.5625,-13.5625
0,52,40,144,152,67,68,45,23,0.8035888671875,0.14520263671875,-0.45904541015625,0.349853515625,0.85205078125,-0.04248046875,0.4912109375,44.0625,117.625,-1.4375
0,53,39,146,133,62,60,37,22,0.8104248046875,0.1463623046875,-0.43914794921875,0.35894775390625,0.853515625,-0.04638671875,0.5478515625,63.1875,115.5625,9.125
0,51,45,131,97,57,105,57,26,0.8157958984375,0.148681640625,-0.4178466796875,0.37115478515625,0.8544921875,0.00439453125,0.5498046875,80.0625,119.3125,23.0625
0,52,46,106,91,54,131,61,26,0.81988525390625,0.151123046875,-0.39544677734375,0.3853759765625,0.82275390625,0.06982421875,0.58642578125,88.25,122.625,34.625
0,55,46,78,78,41,140,75,26,0.82281494140625,0.1514892578125,-0.37335205078125,0.4007568359375,0.7548828125,0.08642578125,0.66015625,81.375,123.3125,47.375
0,50,42,50,71,42,142,80,25,0.82452392578125,0.150146484375,-0.351806640625,0.41693115234375,0.6875,0.095703125,0.71484375,74.5,122.375,58.5
0,49,42,47,81,49,146,82,26,0.82537841796875,0.14849853515625,-0.328125,0.43475341796875,0.67236328125,0.0703125,0.732421875,82.625,132.75,66.3125
0,51,45,61,330,174,121,69,27,0.8260498046875,0.1463623046875,-0.30084228515625,0.4534912109375,0.60302734375,0.03076171875,0.708984375,91.6875,152.0,68.3125
0,49,50,68,357,187,95,64,27,0.8260498046875,0.1439208984375,-0.27117919921875,0.4725341796875,0.490234375,0.0322265625,0.658203125,97.8125,162.9375,70.125
0,48,47,68,358,188,84,49,26,0.82464599609375,0.1385498046875,-0.24359130859375,0.49127197265625,0.36669921875,0.0400390625,0.6650390625,78.8125,157.5625,78.4375
0,50,51,66,361,189,79,42,26,0.82122802734375,0.1337890625,-0.21710205078125,0.5103759765625,0.26416015625,0.0751953125,0.75537109375,80.25,146.75,86.1875
0,48,51,64,362,191,95,48,26,0.81585693359375,0.129638671875,-0.18994140625,0.53045654296875,0.21533203125,0.0751953125,0.771484375,88.125,146.0,95.0625
0,45,46,51,172,94,81,43,22,0.808837890625,0.1248779296875,-0.16351318359375,0.55078125,0.17333984375,0.0859375,0.796875,84.375,142.5625,102.5
0,42,40,39,107,65,80,44,23,0.7996826171875,0.1187744140625,-0.14031982421875,0.571533203125,0.14501953125,0.02880859375,0.86865234375,70.9375,130.0,114.375
0,45,44,37,103,60,77,45,23,0.78863525390625,0.112548828125,-0.12091064453125,0.5921630859375,0.1318359375,0.0400390625,0.873046875,59.1875,111.875,122.5625
0,48,46,35,94,59,77,46,25,0.77691650390625,0.10589599609375,-0.10394287109375,0.61175537109375,0.12646484375,0.10205078125,0.88623046875,47.5,101.3125,122.4375
0,48,49,42,217,161,66,47,33,0.76507568359375,0.0966796875,-0.0875244140625,0.63055419921875,0.08984375,0.10546875,0.86376953125,33.625,107.6875,121.0
0,50,65,40,246,169,64,46,32,0.75341796875,0.087646484375,-0.07232666015625,0.6475830078125,0.04443359375,-0.013671875,0.837890625,31.1875,100.25,112.875
0,47,66,41,253,172,61,45,34,0.74090576171875,0.08013916015625,-0.0606689453125,0.66400146484375,0.01171875,-0.353515625,0.93359375,30.5,78.4375,113.1875
0,58,117,46,257,178,60,48,43,0.7266845703125,0.0811767578125,-0.0484619140625,0.68035888671875,-0.02001953125,-0.3515625,0.98388671875,70.0625,47.125,116.5625
0,58,240,108,278,207,66,49,47,0.7113037109375,0.09552001953125,-0.031494140625,0.69561767578125,-0.0087890625,-0.1650390625,1.04345703125,141.75,14.4375,111.0
0,71,327,141,206,167,52,40,45,0.697509765625,0.11456298828125,-0.01263427734375,0.70721435546875,0.1064453125,0.09765625,0.9501953125,163.0625,3.3125,88.375
0,75,346,146,174,161,55,44,49,0.68548583984375,0.130126953125,0.00128173828125,0.71630859375,0.1689453125,0.23046875,0.91259765625,126.1875,-2.375,75.25
0,80,385,271,179,162,61,48,51,0.67578125,0.13848876953125,0.00634765625,0.723876953125,0.19873046875,0.2490234375,0.9609375,57.3125,-8.125,66.3125
0,95,409,288,175,159,62,46,62,0.66766357421875,0.1427001953125,0.0047607421875,0.7305908203125,0.22412109375,0.14111328125,0.966796875,20.0,-16.8125,59.9375
0,105,389,312,145,127,60,49,71,0.6583251953125,0.14801025390625,0.00189208984375,0.73797607421875,0.2666015625,0.09423828125,1.029296875,23.3125,-24.5625,67.75
0,106,474,392,138,100,58,50,77,0.64764404296875,0.15460205078125,-0.0008544921875,0.74603271484375,0.296875,0.111328125,1.0146484375,29.0625,-28.0,75.375
0,115,557,407,150,123,69,54,79,0.635986328125,0.16162109375,-0.0047607421875,0.7545166015625,0.330078125,0.1591796875,0.9326171875,22.0,-31.25,82.875
0,115,543,344,144,143,68,53,79,0.62567138671875,0.16754150390625,-0.008544921875,0.76177978515625,0.31689453125,0.2724609375,0.9248046875,9.6875,-29.25,75.1875
0,97,569,384,164,142,67,51,66,0.616943359375,0.1705322265625,-0.015625,0.76812744140625,0.30810546875,0.2919921875,0.958984375,-18.5625,-31.5625,69.3125
0,92,579,405,194,143,71,54,60,0.60772705078125,0.1715087890625,-0.026611328125,0.77490234375,0.2900390625,0.22265625,0.9443359375,-38.9375,-38.125,76.3125
0,83,550,335,187,137,70,53,52,0.59735107421875,0.17132568359375,-0.0406494140625,0.7823486328125,0.31884765625,0.08349609375,0.90185546875,-48.0625,-41.25,84.6875
0,68,477,352,197,128,69,49,49,0.586181640625,0.17266845703125,-0.05487060546875,0.78961181640625,0.30126953125,0.0703125,0.89794921875,-44.125,-51.625,87.625
0,67,487,378,274,125,71,48,47,0.5738525390625,0.1763916015625,-0.06768798828125,0.79681396484375,0.27880859375,0.126953125,0.9443359375,-32.8125,-62.5625,92.8125
0,69,487,383,297,128,75,51,48,0.5609130859375,0.179443359375,-0.083740234375,0.80377197265625,0.3173828125,0.11083984375,0.91455078125,-50.5,-68.875,98.375
0,57,470,395,315,146,75,45,41,0.548828125,0.1798095703125,-0.10540771484375,0.8094482421875,0.359375,0.00439453125,0.8603515625,-82.125,-72.9375,95.6875
0,54,378,415,361,189,81,45,39,0.53680419921875,0.18145751953125,-0.12603759765625,0.814208984375,0.326171875,-0.0400390625,0.91552734375,-73.5,-81.75,90.1875
0,53,377,442,368,188,73,41,37,0.5245361328125,0.18450927734375,-0.144775390625,0.81842041015625,0.3369140625,-0.064453125,0.85498046875,-60.625,-82.6875,86.4375
0,48,362,431,317,179,68,38,35,0.51312255859375,0.18817138671875,-0.1639404296875,0.8211669921875,0.40283203125,-0.08251953125,0.85791015625,-64.125,-85.4375,78.4375
0,41,279,585,299,178,63,34,33,0.50201416015625,0.1915283203125,-0.181884765625,0.823486328125,0.41650390625,-0.111328125,0.85009765625,-60.0,-80.875,74.5625
0,46,249,657,278,162,53,30,33,0.49114990234375,0.195068359375,-0.2000732421875,0.824951171875,0.4453125,-0.1240234375,0.80712890625,-62.75,-82.0625,71.625
0,50,230,652,225,113,38,27,33,0.48175048828125,0.19793701171875,-0.21771240234375,0.82537841796875,0.50244140625,-0.13623046875,0.78564453125,-65.6875,-73.875,62.9375
0,54,187,616,205,117,41,29,32,0.47412109375,0.19873046875,-0.23236083984375,0.82562255859375,0.52001953125,-0.08740234375,0.810546875,-64.3125,-55.1875,56.0625
0,58,164,616,216,109,39,28,31,0.46795654296875,0.19732666015625,-0.24749755859375,0.8250732421875,0.5166015625,-0.09912109375,0.72216796875,-75.0,-42.5625,51.0
0,58,160,443,204,108,41,29,29,0.4622802734375,0.193115234375,-0.2645263671875,0.823974609375,0.54931640625,-0.140625,0.7109375,-92.1875,-32.625,53.375
0,54,161,297,201,119,42,30,30,0.45562744140625,0.18634033203125,-0.280517578125,0.823974609375,0.56103515625,-0.2197265625,0.68701171875,-88.5625,-17.3125,62.3125
0,51,161,370,210,143,49,30,33,0.44744873046875,0.1778564453125,-0.29345703125,0.8258056640625,0.5625,-0.2548828125,0.6298828125,-72.1875,0.625,73.625
0,46,191,386,204,128,44,28,32,0.4381103515625,0.16632080078125,-0.30584716796875,0.8287353515625,0.56884765625,-0.33740234375,0.56103515625,-70.375,19.0,84.875
0,41,189,388,208,128,44,28,33,0.42724609375,0.15350341796875,-0.3157958984375,0.8331298828125,0.53369140625,-0.3974609375,0.61083984375,-57.375,26.75,94.75
0,42,186,387,224,136,44,26,33,0.41448974609375,0.1396484375,-0.321533203125,0.83984375,0.4716796875,-0.3984375,0.6328125,-37.4375,35.625,107.5
0,42,187,365,206,122,43,25,32,0.40093994140625,0.124755859375,-0.32574462890625,0.8470458984375,0.46240234375,-0.38916015625,0.60693359375,-31.25,43.5,113.375
0,46,187,327,185,90,44,28,35,0.3870849609375,0.1080322265625,-0.33209228515625,0.85333251953125,0.4541015625,-0.4775390625,0.6044921875,-46.5625,46.4375,117.6875
0,46,165,337,181,91,44,27,35,0.37274169921875,0.09100341796875,-0.337890625,0.859375,0.4228515625,-0.53076171875,0.61181640625,-44.25,48.1875,119.6875
0,47,172,318,145,86,43,28,36,0.35845947265625,0.0740966796875,-0.3431396484375,0.864990234375,0.3759765625,-0.59130859375,0.595703125,-41.75,48.3125,117.0625
0,46,190,303,108,63,42,28,36,0.3433837890625,0.05780029296875,-0.34844970703125,0.8702392578125,0.32763671875,-0.5791015625,0.6142578125,-41.5625,43.25,119.9375
0,45,175,335,105,62,41,28,35,0.32708740234375,0.04107666015625,-0.35418701171875,0.8751220703125,0.30419921875,-0.62841796875,0.61572265625,-44.875,41.8125,125.6875
0,37,185,362,102,54,35,25,28,0.3096923828125,0.02410888671875,-0.36029052734375,0.87957763671875,0.2646484375,-0.6953125,0.62646484375,-46.9375,39.875,131.25
0,35,175,338,94,49,32,25,30,0.2928466796875,0.007568359375,-0.3629150390625,0.88458251953125,0.3017578125,-0.71875,0.5908203125,-27.375,46.4375,128.75
0,33,162,336,96,46,32,25,26,0.27734375,-0.0093994140625,-0.3646240234375,0.8887939453125,0.2626953125,-0.75390625,0.57666015625,-24.6875,52.25,121.4375
0,30,131,331,89,45,32,25,26,0.2615966796875,-0.0260009765625,-0.3648681640625,0.89312744140625,0.1337890625,-0.73828125,0.61083984375,-17.25,51.25,121.4375
0,30,124,281,78,41,32,24,25,0.2449951171875,-0.04266357421875,-0.3641357421875,0.89752197265625,0.08642578125,-0.771484375,0.666015625,-12.4375,51.1875,126.1875
0,41,111,138,65,32,30,25,27,0.22796630859375,-0.0584716796875,-0.36224365234375,0.90185546875,0.10986328125,-0.791015625,0.66796875,-5.5625,47.9375,127.375
0,53,136,121,59,31,31,28,48,0.211669921875,-0.0743408203125,-0.3575439453125,0.90655517578125,0.1064453125,-0.76171875,0.7060546875,9.125,54.125,125.9375
0,57,143,110,53,32,30,29,86,0.1953125,-0.091552734375,-0.350341796875,0.91143798828125,0.04833984375,-0.73046875,0.70947265625,20.4375,63.3125,130.3125
0,95,153,105,49,32,30,33,166,0.1788330078125,-0.109619140625,-0.34246826171875,0.915771484375,-0.03076171875,-0.68212890625,0.734375,21.25,68.4375,131.875
0,100,157,88,38,31,28,34,172,0.16339111328125,-0.12847900390625,-0.33453369140625,0.91912841796875,-0.07568359375,-0.65625,0.73095703125,19.375,75.4375,127.0
0,163,170,56,36,30,28,37,192,0.14959716796875,-0.148681640625,-0.32623291015625,0.92144775390625,-0.13134765625,-0.68798828125,0.6982421875,20.0,86.5,120.125
0,189,137,53,33,29,29,38,203,0.13702392578125,-0.16949462890625,-0.31927490234375,0.9222412109375,-0.1962890625,-0.69775390625,0.67236328125,11.3125,91.75,112.6875
0,195,153,55,35,28,40,41,223,0.12628173828125,-0.18988037109375,-0.31103515625,0.922607421875,-0.31591796875,-0.7412109375,0.626953125,20.375,93.0,102.375
0,197,148,56,37,34,110,267,211,0.11724853515625,-0.2098388671875,-0.30145263671875,0.92266845703125,-0.36376953125,-0.748046875,0.626953125,38.375,91.75,94.5
0,200,148,54,37,36,128,288,230,0.1099853515625,-0.228515625,-0.28887939453125,0.92315673828125,-0.4404296875,-0.77978515625,0.6337890625,60.0625,87.9375,87.5
0,192,130,51,37,40,158,326,265,0.1046142578125,-0.24383544921875,-0.27197265625,0.92498779296875,-0.4892578125,-0.677734375,0.697265625,83.6875,74.3125,76.5625
0,172,123,48,40,49,184,347,273,0.101806640625,-0.25665283203125,-0.2542724609375,0.9268798828125,-0.455078125,-0.64599609375,0.72509765625,92.125,69.8125,63.0
0,187,93,46,41,56,219,387,409,0.10162353515625,-0.268798828125,-0.2332763671875,0.928955078125,-0.46923828125,-0.64404296875,0.76953125,108.6875,73.0,51.9375
0,188,88,42,40,52,205,300,422,0.1051025390625,-0.28118896484375,-0.20855712890625,0.9307861328125,-0.50634765625,-0.6162109375,0.83349609375,133.9375,82.625,38.1875
0,199,81,41,44,54,232,315,449,0.112548828125,-0.29229736328125,-0.17913818359375,0.9326171875,-0.55810546875,-0.541015625,0.8369140625,165.75,83.0625,22.8125
0,177,73,37,42,53,232,296,435,0.12298583984375,-0.30224609375,-0.148681640625,0.9334716796875,-0.55224609375,-0.39208984375,0.845703125,175.0,82.1875,6.375
0,208,73,43,43,98,318,346,464,0.13494873046875,-0.3121337890625,-0.12017822265625,0.93267822265625,-0.583984375,-0.36376953125,0.79931640625,166.0625,84.3125,-6.6875
0,217,90,51,43,100,327,324,411,0.14886474609375,-0.32122802734375,-0.09271240234375,0.93060302734375,-0.65283203125,-0.3037109375,0.81103515625,163.625,82.3125,-20.5
0,236,91,54,43,105,332,339,397,0.16497802734375,-0.32830810546875,-0.06475830078125,0.92779541015625,-0.70458984375,-0.279296875,0.83203125,171.75,74.5,-33.25
0,236,103,59,42,104,322,325,382,0.1827392578125,-0.33184814453125,-0.037109375,0.9246826171875,-0.6875,-0.25439453125,0.8046875,176.625,56.4375,-43.8125
0,243,104,66,43,112,360,384,424,0.2001953125,-0.33294677734375,-0.0140380859375,0.92132568359375,-0.65087890625,-0.123046875,0.78662109375,152.875,39.5,-52.3125
0,228,128,106,66,75,303,393,442,0.21630859375,-0.33294677734375,0.00384521484375,0.917724609375,-0.67236328125,-0.083984375,0.763671875,124.3125,27.875,-56.0625
0,237,123,118,75,68,274,379,446,0.22998046875,-0.3319091796875,0.0186767578125,0.91461181640625,-0.66259765625,-0.02099609375,0.806640625,99.75,17.375,-52.0625
0,224,136,148,88,73,297,371,452,0.24224853515625,-0.33160400390625,0.02777099609375,0.911376953125,-0.62646484375,-0.04541015625,0.73974609375,68.375,13.0,-54.0625
0,222,132,147,92,72,285,358,489,0.25311279296875,-0.33154296875,0.03045654296875,0.9083251953125,-0.6328125,-0.06884765625,0.73583984375,33.3125,5.125,-58.125
0,211,133,148,96,58,224,280,448,0.2623291015625,-0.33123779296875,0.031005859375,0.90576171875,-0.61181640625,-0.09033203125,0.71484375,20.0625,-0.4375,-51.6875
0,198,109,123,81,55,185,164,403,0.26824951171875,-0.32977294921875,0.02978515625,0.90460205078125,-0.49072265625,-0.0478515625,0.7265625,3.625,-3.8125,-36.8125
0,166,102,113,72,53,179,153,331,0.2708740234375,-0.329833984375,0.025146484375,0.90399169921875,-0.43115234375,-0.02490234375,0.67431640625,-23.875,-0.6875,-26.25
0,138,103,68,54,35,109,101,301,0.27081298828125,-0.33251953125,0.01593017578125,0.9031982421875,-0.46533203125,-0.10302734375,0.64453125,-53.375,3.25,-19.3125
0,118,145,75,53,39,100,90,185,0.269775390625,-0.3358154296875,0.00543212890625,0.9024658203125,-0.51611328125,-0.2060546875,0.6875,-58.3125,3.4375,-13.4375
0,100,160,81,46,38,80,66,164,0.2681884765625,-0.3382568359375,-0.0030517578125,0.9019775390625,-0.52587890625,-0.25244140625,0.6748046875,-45.9375,0.8125,-5.1875
0,93,272,177,49,37,59,55,118,0.265625,-0.340087890625,-0.009521484375,0.90203857421875,-0.53955078125,-0.21728515625,0.69677734375,-39.4375,0.1875,2.5
0,86,328,277,63,40,50,56,70,0.2630615234375,-0.34173583984375,-0.01483154296875,0.902099609375,-0.5419921875,-0.234375,0.73828125,-33.0,2.5,5.125
0,96,421,451,78,44,47,53,68,0.2607421875,-0.34393310546875,-0.0181884765625,0.90185546875,-0.5556640625,-0.20654296875,0.71337890625,-24.8125,7.1875,6.0
0,96,459,475,81,42,43,52,65,0.2586669921875,-0.34454345703125,-0.01873779296875,0.9022216796875,-0.54150390625,-0.16064453125,0.7666015625,-10.625,5.6875,8.875
0,98,459,491,96,43,41,49,63,0.25567626953125,-0.3446044921875,-0.01507568359375,0.90313720703125,-0.54638671875,-0.0966796875,0.7685546875,7.0625,7.375,20.5
0,115,438,516,154,81,41,45,69,0.249755859375,-0.3448486328125,-0.01043701171875,0.90472412109375,-0.5302734375,-0.0029296875,0.7890625,1.5,10.0625,35.125
0,111,421,491,180,94,40,41,65,0.24163818359375,-0.34674072265625,-0.00482177734375,0.90625,-0.5556640625,0.021484375,0.810546875,-0.6875,20.4375,47.5625
0,107,341,441,191,95,33,36,57,0.23077392578125,-0.35235595703125,-0.0020751953125,0.90692138671875,-0.62841796875,0.01904296875,0.69580078125,-24.25,29.25,54.9375
0,114,292,449,203,100,31,36,59,0.2191162109375,-0.359130859375,-0.001953125,0.90716552734375,-0.6875,-0.03759765625,0.66796875,-37.5,29.5,55.0625
0,116,321,483,236,111,34,35,60,0.20672607421875,-0.36602783203125,-0.00469970703125,0.90728759765625,-0.681640625,-0.072265625,0.65478515625,-52.1875,27.25,54.625
0,94,316,590,286,123,37,35,54,0.1929931640625,-0.37335205078125,-0.0111083984375,0.90728759765625,-0.71435546875,-0.111328125,0.63720703125,-72.4375,23.75,55.25
0,80,310,620,320,136,37,36,49,0.1783447265625,-0.3800048828125,-0.02032470703125,0.90740966796875,-0.84716796875,-0.177734375,0.61181640625,-85.1875,10.375,55.5
0,77,327,664,366,165,39,36,45,0.16473388671875,-0.38323974609375,-0.03009033203125,0.9083251953125,-0.87744140625,-0.1806640625,0.6484375,-82.9375,-9.25,48.4375
0,67,324,658,399,173,47,35,42,0.15325927734375,-0.38262939453125,-0.03961181640625,0.91021728515625,-0.79345703125,-0.173828125,0.66455078125,-74.0,-25.4375,38.25
0,70,291,658,410,174,44,36,45,0.1414794921875,-0.37994384765625,-0.05401611328125,0.91253662109375,-0.759765625,-0.18798828125,0.63427734375,-97.875,-41.9375,29.375
0,69,326,546,412,166,41,40,49,0.1295166015625,-0.3748779296875,-0.07220458984375,0.91510009765625,-0.77490234375,-0.24267578125,0.73828125,-116.4375,-51.5625,23.1875
0,74,306,579,388,152,46,43,50,0.118896484375,-0.369140625,-0.090576171875,0.917236328125,-0.6962890625,-0.28759765625,0.7109375,-113.375,-53.125,15.6875
0,70,295,576,403,132,48,43,54,0.11004638671875,-0.36297607421875,-0.10919189453125,0.91876220703125,-0.6435546875,-0.31201171875,0.73974609375,-111.4375,-52.6875,5.25
0,73,309,603,430,161,50,45,56,0.10345458984375,-0.35595703125,-0.12567138671875,0.920166015625,-0.61083984375,-0.37451171875,0.78662109375,-93.5,-50.25,0.25
0,69,347,591,478,178,53,44,53,0.09814453125,-0.34918212890625,-0.14068603515625,0.92120361328125,-0.58349609375,-0.4384765625,0.724609375,-79.875,-48.625,-1.3125
0,70,313,624,518,240,67,43,47,0.09552001953125,-0.340576171875,-0.15032958984375,0.92315673828125,-0.603515625,-0.4072265625,0.806640625,-48.4375,-53.625,-8.6875
0,65,335,603,567,284,73,42,46,0.094482421875,-0.332763671875,-0.15814208984375,0.9248046875,-0.53759765625,-0.42919921875,0.75,-34.5625,-46.375,-11.25
0,60,334,504,577,329,117,47,46,0.09375,-0.32452392578125,-0.1651611328125,0.92657470703125,-0.5263671875,-0.42138671875,0.77587890625,-30.6875,-47.375,-12.5625
0,54,305,480,546,334,130,45,42,0.0936279296875,-0.31585693359375,-0.17010498046875,0.9287109375,-0.57861328125,-0.44384765625,0.8232421875,-18.625,-51.0,-14.0
0,46,269,464,500,340,145,47,42,0.09405517578125,-0.30609130859375,-0.17242431640625,0.9315185546875,-0.58544921875,-0.41064453125,0.86083984375,-4.875,-56.3125,-14.6875
0,39,232,410,463,310,160,43,40,0.09625244140625,-0.29620361328125,-0.1746826171875,0.93408203125,-0.55322265625,-0.392578125,0.84619140625,-2.0625,-55.0,-24.375
0,37,194,342,410,336,209,40,37,0.0999755859375,-0.28619384765625,-0.17974853515625,0.935791015625,-0.5087890625,-0.39306640625,0.82373046875,-15.0625,-54.1875,-38.1875
0,36,147,359,357,302,216,39,35,0.104736328125,-0.2763671875,-0.18841552734375,0.9365234375,-0.5302734375,-0.43505859375,0.8369140625,-32.75,-55.0625,-50.125
0,34,144,332,333,285,209,38,33,0.11065673828125,-0.265869140625,-0.19976806640625,0.9365234375,-0.50634765625,-0.54541015625,0.83447265625,-40.75,-57.625,-58.875
0,33,127,373,301,267,204,34,32,0.1180419921875,-0.25396728515625,-0.2095947265625,0.936767578125,-0.466796875,-0.642578125,0.8212890625,-24.5625,-63.1875,-63.6875
0,31,93,368,227,259,197,34,31,0.12689208984375,-0.2398681640625,-0.2149658203125,0.93817138671875,-0.44970703125,-0.65087890625,0.81982421875,4.5625,-73.25,-68.0625
0,31,86,350,191,164,140,35,31,0.1365966796875,-0.22412109375,-0.21673583984375,0.94024658203125,-0.4140625,-0.62548828125,0.8408203125,25.625,-79.125,-69.8125
0,30,82,323,134,147,92,30,29,0.14715576171875,-0.20635986328125,-0.21533203125,0.94305419921875,-0.34326171875,-0.59130859375,0.85009765625,44.5,-85.6875,-72.8125
0,31,76,334,139,141,90,34,33,0.15875244140625,-0.18756103515625,-0.21087646484375,0.94610595703125,-0.26611328125,-0.5,0.8818359375,58.6875,-85.0,-76.375
0,31,62,253,156,145,84,32,32,0.17236328125,-0.16986083984375,-0.20611572265625,0.9481201171875,-0.166015625,-0.49365234375,0.791015625,63.625,-73.5625,-84.6875
0,29,55,222,144,125,72,33,32,0.18621826171875,-0.15283203125,-0.202880859375,0.9490966796875,-0.130859375,-0.515625,0.8291015625,54.8125,-69.3125,-87.75
0,29,64,216,159,169,79,38,34,0.19891357421875,-0.13580322265625,-0.19757080078125,0.9501953125,-0.17822265625,-0.54638671875,0.87841796875,66.9375,-73.5,-81.125
0,37,78,226,182,206,111,60,41,0.2109375,-0.11865234375,-0.188232421875,0.95184326171875,-0.18896484375,-0.51171875,0.8876953125,88.375,-73.125,-75.9375
0,35,97,269,192,207,252,106,38,0.22418212890625,-0.09991455078125,-0.17437744140625,0.95355224609375,-0.13623046875,-0.400390625,0.9033203125,109.75,-73.0,-81.375
0,39,99,282,183,203,286,130,42,0.23846435546875,-0.0816650390625,-0.15960693359375,0.95440673828125,-0.07666015625,-0.396484375,0.83642578125,114.25,-67.125,-86.6875
0,38,98,277,177,200,309,190,45,0.25286865234375,-0.0638427734375,-0.144775390625,0.9544677734375,-0.08349609375,-0.3115234375,0.890625,112.8125,-64.875,-88.0625
0,38,91,276,153,164,318,202,43,0.26690673828125,-0.04620361328125,-0.12939453125,0.953857421875,-0.0908203125,-0.30126953125,0.88330078125,114.9375,-63.4375,-87.375
0,31,81,247,137,94,328,212,41,0.28076171875,-0.02880859375,-0.11370849609375,0.9525146484375,-0.04833984375,-0.26611328125,0.85107421875,116.3125,-61.4375,-86.75
0,32,53,174,110,73,288,233,44,0.2943115234375,-0.0115966796875,-0.0987548828125,0.95050048828125,0.01171875,-0.20947265625,0.84814453125,110.75,-61.1875,-86.125
0,28,47,152,107,61,281,238,44,0.306640625,0.00433349609375,-0.0831298828125,0.9481201171875,0.06689453125,-0.12451171875,0.85107421875,111.375,-53.0,-79.0625
0,30,48,151,108,59,300,270,44,0.31866455078125,0.01898193359375,-0.06671142578125,0.9453125,0.076171875,-0.0478515625,0.88037109375,112.25,-44.9375,-77.5625
0,30,47,147,110,57,316,279,47,0.32952880859375,0.03204345703125,-0.050537109375,0.94219970703125,0.05224609375,-0.013671875,0.90576171875,108.25,-38.1875,-71.25
0,32,44,128,99,55,330,280,44,0.33978271484375,0.0435791015625,-0.03521728515625,0.93878173828125,0.09130859375,0.01513671875,0.8984375,98.375,-31.25,-67.5625
0,33,44,86,97,52,313,260,42,0.3505859375,0.05328369140625,-0.02130126953125,0.93475341796875,0.17626953125,0.06640625,0.80224609375,85.1875,-18.125,-71.0
0,34,44,72,93,52,299,247,37,0.361083984375,0.0579833984375,-0.010009765625,0.9306640625,0.18017578125,0.09033203125,0.77880859375,61.4375,3.9375,-67.9375
0,33,45,63,100,52,259,163,35,0.37188720703125,0.0589599609375,0.0009765625,0.92633056640625,0.1435546875,0.10205078125,0.80029296875,51.9375,20.6875,-70.0
0,34,49,71,108,58,277,175,36,0.38232421875,0.0582275390625,0.012939453125,0.92205810546875,0.14013671875,0.12060546875,0.8154296875,54.0625,32.0625,-68.4375
0,36,45,73,103,55,273,169,34,0.39208984375,0.05657958984375,0.02630615234375,0.91778564453125,0.12646484375,0.130859375,0.84033203125,60.5625,39.5625,-65.375
0,47,44,70,100,51,280,188,82,0.4005126953125,0.0537109375,0.03985595703125,0.913818359375,0.0908203125,0.13623046875,0.87451171875,60.1875,45.25,-58.1875
0,48,42,73,97,51,292,236,87,0.40789794921875,0.050537109375,0.05352783203125,0.9100341796875,0.05126953125,0.07421875,0.87744140625,66.3125,45.9375,-52.5625
0,69,41,70,83,53,311,307,96,0.41363525390625,0.04876708984375,0.06951904296875,0.90643310546875,0.02001953125,0.103515625,0.8740234375,81.6875,43.125,-43.5625
0,77,42,67,70,56,347,430,118,0.416748046875,0.04962158203125,0.0885009765625,0.90325927734375,0.033203125,0.244140625,0.87158203125,96.5,39.5625,-28.9375
0,100,40,64,62,59,339,457,126,0.41851806640625,0.05023193359375,0.106201171875,0.9005126953125,0.0439453125,0.33056640625,0.87841796875,85.8125,40.375,-21.125
0,120,44,63,61,71,445,512,120,0.419189453125,0.048095703125,0.12066650390625,0.89849853515625,0.0068359375,0.38330078125,0.84716796875,59.4375,46.1875,-14.1875
0,125,45,55,49,70,450,503,174,0.41888427734375,0.04345703125,0.13116455078125,0.8974609375,0.00146484375,0.38330078125,0.84423828125,33.9375,50.875,-7.625
0,120,51,55,45,71,459,506,184,0.41741943359375,0.0372314453125,0.13958740234375,0.8970947265625,-0.03125,0.3408203125,0.84033203125,22.5625,54.1875,-0.625
0,125,64,48,37,63,408,404,181,0.4141845703125,0.03033447265625,0.14703369140625,0.897705078125,-0.048828125,0.29931640625,0.80908203125,18.375,56.4375,10.375
0,108,151,51,34,59,392,371,182,0.40948486328125,0.02337646484375,0.154052734375,0.89886474609375,-0.09814453125,0.29541015625,0.8154296875,16.75,54.8125,20.375
0,84,175,51,33,42,230,272,173,0.40350341796875,0.01739501953125,0.16015625,0.900634765625,-0.13818359375,0.30419921875,0.8408203125,14.25,47.4375,29.5
0,77,217,56,31,41,187,248,119,0.3963623046875,0.01141357421875,0.164794921875,0.903076171875,-0.14453125,0.3193359375,0.80126953125,4.6875,44.625,37.1875
0,76,337,65,32,32,108,142,94,0.3878173828125,0.00592041015625,0.167724609375,0.90631103515625,-0.16455078125,0.31787109375,0.81787109375,-3.3125,39.375,47.0625
0,82,373,73,40,31,76,97,81,0.3779296875,0.00079345703125,0.168701171875,0.9102783203125,-0.1552734375,0.35595703125,0.81689453125,-15.875,35.0625,55.4375
0,93,447,106,49,38,68,78,70,0.36700439453125,-0.00482177734375,0.1663818359375,0.9151611328125,-0.20361328125,0.36962890625,0.841796875,-35.375,29.0625,63.0
0,93,546,111,60,47,57,66,79,0.35601806640625,-0.0108642578125,0.16033935546875,0.92047119140625,-0.2568359375,0.31005859375,0.84716796875,-53.3125,20.1875,65.3125
0,104,608,126,64,51,54,64,94,0.3455810546875,-0.01617431640625,0.15185546875,0.92584228515625,-0.26708984375,0.23876953125,0.90234375,-60.1875,10.625,63.3125
0,139,597,164,79,64,58,73,119,0.33544921875,-0.01898193359375,0.1434326171875,0.93084716796875,-0.23291015625,0.18896484375,0.89599609375,-52.0,-0.75,63.25
0,165,671,187,83,66,57,72,128,0.3251953125,-0.019287109375,0.1361083984375,0.935546875,-0.21435546875,0.181640625,0.96826171875,-40.625,-10.625,64.6875
0,177,652,176,84,69,61,76,134,0.315185546875,-0.0185546875,0.1287841796875,0.94000244140625,-0.189453125,0.1962890625,0.97802734375,-40.0,-15.0625,63.0625
0,181,612,183,78,62,53,73,149,0.30621337890625,-0.019287109375,0.119384765625,0.9442138671875,-0.17041015625,0.30126953125,0.8662109375,-63.5625,-11.875,54.5625
0,184,565,188,80,62,51,75,147,0.2974853515625,-0.0189208984375,0.1099853515625,0.9481201171875,-0.2060546875,0.37255859375,0.9677734375,-65.875,-20.3125,53.8125
0,174,603,182,72,52,47,64,138,0.2880859375,-0.018310546875,0.0985107421875,0.95233154296875,-0.19580078125,0.28076171875,0.97265625,-72.3125,-24.75,57.875
0,206,657,222,97,71,57,74,152,0.27203369140625,-0.017578125,0.0682373046875,0.95965576171875,-0.07763671875,-0.017578125,0.978515625,-80.9375,-24.125,46.0
0,224,874,288,129,88,67,90,167,0.267578125,-0.01837158203125,0.05621337890625,0.961669921875,-0.09619140625,-0.0615234375,0.94775390625,-57.8125,-15.3125,26.9375
0,240,925,307,137,94,72,94,157,0.2642822265625,-0.01617431640625,0.053466796875,0.9627685546875,-0.14404296875,-0.0234375,0.92724609375,-4.75,-21.6875,21.4375
0,245,934,303,153,128,80,93,155,0.259033203125,-0.009765625,0.05743408203125,0.96405029296875,-0.12744140625,0.1787109375,0.99169921875,25.75,-33.1875,33.4375
0,240,946,327,156,131,89,93,150,0.25323486328125,-0.0037841796875,0.05609130859375,0.9656982421875,-0.01611328125,0.1845703125,0.97802734375,-5.125,-32.1875,36.0
0,189,922,315,157,165,88,82,126,0.24847412109375,6.103515625e-05,0.04888916015625,0.96734619140625,-0.03076171875,0.1318359375,0.986328125,-37.4375,-30.75,29.625
0,148,695,258,134,159,78,58,94,0.24462890625,0.00347900390625,0.0406494140625,0.96868896484375,-0.11669921875,0.0107421875,0.95654296875,-36.8125,-36.625,24.875
0,111,590,262,128,182,86,46,76,0.24249267578125,0.008544921875,0.034423828125,0.969482421875,-0.12890625,0.06640625,0.974609375,-27.4375,-45.75,15.125
0,83,557,265,109,168,84,40,60,0.241943359375,0.01422119140625,0.024658203125,0.9698486328125,-0.033203125,0.03759765625,0.96630859375,-45.4375,-48.125,5.3125
0,59,450,215,101,175,73,38,47,0.24359130859375,0.019775390625,0.01263427734375,0.96954345703125,-0.0126953125,0.02783203125,0.984375,-58.9375,-50.9375,-7.6875
0,42,257,181,72,138,71,29,32,0.24652099609375,0.02593994140625,0.00042724609375,0.96875,0.01611328125,-0.10693359375,0.96533203125,-50.9375,-54.125,-16.0625
0,36,225,175,81,170,83,28,29,0.2508544921875,0.03338623046875,-0.0086669921875,0.96734619140625,0.04150390625,-0.09423828125,0.97119140625,-34.0,-56.25,-25.0625
0,33,208,120,86,148,76,29,29,0.25543212890625,0.04180908203125,-0.01513671875,0.96575927734375,0.1005859375,-0.06689453125,0.9775390625,-20.625,-55.0625,-27.25
0,29,188,100,82,140,71,31,26,0.2601318359375,0.0516357421875,-0.01861572265625,0.9639892578125,0.13427734375,-0.1845703125,1.00732421875,6.1875,-58.0,-29.875
0,28,146,96,83,149,74,31,24,0.267333984375,0.061279296875,-0.02117919921875,0.96136474609375,0.189453125,-0.12255859375,0.927734375,5.8125,-52.5,-44.75
0,29,124,75,114,185,94,33,25,0.2755126953125,0.07147216796875,-0.02020263671875,0.9583740234375,0.14599609375,-0.0517578125,1.01171875,21.3125,-55.125,-51.875
0,29,104,69,140,188,90,33,23,0.283447265625,0.08209228515625,-0.01776123046875,0.95526123046875,0.18017578125,0.05224609375,0.9580078125,23.875,-53.5625,-50.1875
0,31,77,106,208,236,101,36,27,0.291259765625,0.092529296875,-0.0172119140625,0.95196533203125,0.23291015625,0.1171875,0.93994140625,9.0625,-53.125,-48.5
0,32,61,130,227,248,103,33,26,0.2987060546875,0.1015625,-0.021728515625,0.94866943359375,0.25341796875,0.046875,0.900390625,-16.0625,-53.375,-44.125
0,37,67,150,276,239,105,53,27,0.30645751953125,0.11077880859375,-0.02874755859375,0.9449462890625,0.27490234375,-0.02978515625,0.93408203125,-24.375,-59.5625,-46.4375
0,40,65,190,309,247,92,54,30,0.3154296875,0.11956787109375,-0.033447265625,0.94073486328125,0.32275390625,-0.013671875,0.86328125,-14.75,-49.9375,-54.75
0,48,81,211,342,237,87,60,33,0.32513427734375,0.12762451171875,-0.039794921875,0.93609619140625,0.29296875,-0.06640625,0.8154296875,-22.0,-51.6875,-59.4375
0,48,85,239,329,196,70,65,30,0.33544921875,0.13592529296875,-0.046630859375,0.93096923828125,0.29248046875,-0.12158203125,0.82861328125,-21.5,-55.6875,-64.3125
0,51,93,269,329,210,76,72,36,0.34716796875,0.14471435546875,-0.05230712890625,0.925048828125,0.333984375,-0.1298828125,0.8671875,-15.1875,-55.5625,-74.4375
0,47,91,285,296,218,89,84,37,0.359375,0.15283203125,-0.0592041015625,0.91864013671875,0.3310546875,-0.1533203125,0.88525390625,-22.375,-56.75,-77.875
0,47,93,266,253,187,89,103,36,0.37103271484375,0.16375732421875,-0.062744140625,0.911865234375,0.26513671875,-0.0966796875,0.97119140625,-1.5625,-73.125,-78.25
0,42,80,255,188,172,100,112,36,0.38092041015625,0.17962646484375,-0.06207275390625,0.90478515625,0.34375,0.02197265625,0.90478515625,25.4375,-85.6875,-73.125
0,40,77,263,164,200,114,115,36,0.3912353515625,0.196533203125,-0.061279296875,0.89691162109375,0.4404296875,0.185546875,0.87646484375,18.125,-86.9375,-73.875
0,43,73,244,151,190,110,120,36,0.40350341796875,0.20782470703125,-0.06842041015625,0.88836669921875,0.46484375,0.1279296875,0.8134765625,-33.75,-74.0,-75.75
0,44,66,232,162,187,98,113,35,0.4173583984375,0.217041015625,-0.07794189453125,0.87890625,0.404296875,0.0947265625,0.9091796875,-50.375,-77.875,-83.125
0,47,65,240,166,191,101,102,37,0.430908203125,0.228515625,-0.0858154296875,0.86871337890625,0.45263671875,0.04296875,0.86669921875,-33.5,-83.75,-87.8125
0,47,65,264,171,196,89,88,34,0.44287109375,0.2420654296875,-0.09295654296875,0.85821533203125,0.53564453125,0.05322265625,0.82763671875,-23.1875,-89.6875,-83.3125
0,50,72,275,189,199,81,80,35,0.4541015625,0.25531005859375,-0.10003662109375,0.84765625,0.55615234375,0.08251953125,0.80126953125,-23.625,-88.0625,-78.75
0,50,72,279,239,204,79,67,32,0.4647216796875,0.2681884765625,-0.10687255859375,0.83697509765625,0.55712890625,0.083984375,0.7548828125,-22.6875,-86.375,-76.25
0,53,73,276,228,196,79,50,33,0.474609375,0.28167724609375,-0.113037109375,0.826171875,0.55078125,0.0830078125,0.76123046875,-15.9375,-90.75,-74.875
0,53,71,284,240,189,62,35,32,0.48284912109375,0.2978515625,-0.11810302734375,0.81494140625,0.5751953125,0.158203125,0.7236328125,-1.5,-102.625,-71.0
0,53,71,308,241,188,64,36,32,0.4898681640625,0.312744140625,-0.12469482421875,0.8040771484375,0.64501953125,0.16259765625,0.67333984375,-10.0,-100.375,-61.0625
0,60,69,295,233,186,61,36,32,0.4959716796875,0.3272705078125,-0.13238525390625,0.79327392578125,0.6728515625,0.16015625,0.65771484375,-16.4375,-97.875,-53.375
0,58,65,308,202,170,56,32,31,0.50115966796875,0.340576171875,-0.1409912109375,0.78289794921875,0.65576171875,0.15185546875,0.615234375,-21.5,-96.375,-45.4375
0,56,74,367,221,182,53,30,30,0.505126953125,0.35357666015625,-0.1500244140625,0.7728271484375,0.66650390625,0.2021484375,0.59716796875,-24.0625,-97.0625,-35.6875
0,51,71,429,214,184,58,32,28,0.50848388671875,0.3651123046875,-0.16058349609375,0.7630615234375,0.6943359375,0.1923828125,0.58984375,-32.5625,-94.9375,-28.3125
0,53,75,420,262,174,54,31,29,0.51080322265625,0.3759765625,-0.1708984375,0.75390625,0.73681640625,0.19287109375,0.52587890625,-30.9375,-88.0625,-21.625
0,43,74,399,282,150,45,29,27,0.51239013671875,0.3848876953125,-0.18267822265625,0.74554443359375,0.76806640625,0.166015625,0.5048828125,-39.6875,-82.1875,-12.5625
0,43,100,563,351,198,51,31,28,0.51324462890625,0.3916015625,-0.1959228515625,0.73809814453125,0.76611328125,0.12841796875,0.56396484375,-47.875,-80.625,-2.3125
0,44,95,549,355,204,50,32,28,0.51263427734375,0.39776611328125,-0.20892333984375,0.73162841796875,0.7958984375,0.08251953125,0.509765625,-42.4375,-74.6875,4.4375
0,47,103,564,364,209,46,33,29,0.5113525390625,0.4046630859375,-0.21826171875,0.7259521484375,0.8095703125,0.169921875,0.548828125,-26.0625,-69.5625,6.0
0,50,120,596,339,218,47,34,28,0.510498046875,0.41021728515625,-0.22735595703125,0.72064208984375,0.82666015625,0.185546875,0.509765625,-30.125,-60.0,7.3125
0,49,121,657,316,205,44,31,27,0.5103759765625,0.4141845703125,-0.23699951171875,0.71533203125,0.86669921875,0.1494140625,0.4560546875,-38.125,-51.0,6.3125
0,50,106,529,224,150,37,32,28,0.5111083984375,0.41583251953125,-0.2476806640625,0.71026611328125,0.8486328125,0.1064453125,0.49072265625,-49.125,-46.1875,7.1875
0,48,119,530,212,128,36,31,30,0.5106201171875,0.416259765625,-0.2591552734375,0.70623779296875,0.83203125,0.06494140625,0.5107421875,-50.25,-45.8125,17.25
0,51,142,527,200,105,35,33,37,0.50872802734375,0.41693115234375,-0.27032470703125,0.7030029296875,0.85595703125,0.02978515625,0.50341796875,-42.9375,-46.3125,23.0
0,50,267,664,190,88,38,34,39,0.50555419921875,0.41754150390625,-0.28070068359375,0.70086669921875,0.86865234375,-0.02001953125,0.431640625,-34.3125,-38.875,27.5
0,52,283,636,173,80,35,38,42,0.50238037109375,0.4189453125,-0.2899169921875,0.69854736328125,0.8798828125,0.0556640625,0.38037109375,-30.5625,-36.6875,28.375
0,51,304,627,178,86,37,38,41,0.49920654296875,0.41973876953125,-0.29876708984375,0.6966552734375,0.873046875,0.09765625,0.42578125,-32.0,-36.25,32.9375
0,79,411,631,169,96,37,38,47,0.49505615234375,0.4189453125,-0.3094482421875,0.69537353515625,0.88134765625,0.03515625,0.47119140625,-38.875,-38.875,43.0625
0,94,447,622,277,143,36,39,50,0.48931884765625,0.41778564453125,-0.3214111328125,0.69476318359375,0.9052734375,-0.10107421875,0.39892578125,-36.0625,-37.75,47.75
0,95,402,425,269,143,35,37,50,0.48333740234375,0.41748046875,-0.33258056640625,0.69384765625,0.93212890625,-0.11865234375,0.3466796875,-30.4375,-37.125,44.875
0,97,416,424,288,146,35,35,49,0.47796630859375,0.41790771484375,-0.34320068359375,0.692138671875,0.89990234375,-0.0576171875,0.39599609375,-32.0625,-44.3125,42.3125
0,99,469,430,288,143,36,34,52,0.47259521484375,0.4176025390625,-0.3558349609375,0.6895751953125,0.873046875,-0.0390625,0.4072265625,-44.9375,-52.0,48.4375
0,81,395,394,295,152,38,36,50,0.46734619140625,0.41558837890625,-0.37176513671875,0.68597412109375,0.9052734375,-0.14892578125,0.3759765625,-62.4375,-54.625,51.5
0,59,399,415,187,110,38,32,42,0.4625244140625,0.41375732421875,-0.38714599609375,0.681884765625,0.92724609375,-0.21240234375,0.3544921875,-60.8125,-54.0625,44.1875
0,57,424,432,221,152,46,36,43,0.4569091796875,0.4134521484375,-0.3992919921875,0.67877197265625,0.95458984375,-0.2236328125,0.36279296875,-40.8125,-51.5625,39.75
0,54,427,386,203,151,46,34,44,0.4512939453125,0.41387939453125,-0.40960693359375,0.6761474609375,0.974609375,-0.23876953125,0.34033203125,-30.75,-48.1875,34.9375
0,51,375,385,193,150,47,34,42,0.4482421875,0.4134521484375,-0.41876220703125,0.6728515625,0.9453125,-0.2421875,0.3515625,-36.4375,-39.4375,23.0625
0,49,379,415,182,131,46,31,38,0.44696044921875,0.41265869140625,-0.42547607421875,0.66998291015625,0.9326171875,-0.24560546875,0.37744140625,-32.0,-29.5,12.5
0,50,332,317,179,133,46,31,38,0.44818115234375,0.41107177734375,-0.43048095703125,0.66693115234375,0.966796875,-0.26611328125,0.3583984375,-33.4375,-14.875,-0.1875
0,46,276,288,139,71,41,27,35,0.45233154296875,0.4091796875,-0.43231201171875,0.66412353515625,0.9609375,-0.25732421875,0.3369140625,-28.0625,3.625,-17.1875
0,48,258,355,127,72,42,29,34,0.45849609375,0.40740966796875,-0.43060302734375,0.66204833984375,0.9306640625,-0.23046875,0.33837890625,-17.5625,18.75,-31.0
0,45,228,351,119,68,68,42,35,0.46630859375,0.40509033203125,-0.4263916015625,0.6607666015625,0.9267578125,-0.2373046875,0.33740234375,-10.9375,34.0625,-40.25
0,42,184,308,98,62,89,45,33,0.4754638671875,0.40325927734375,-0.4188232421875,0.66015625,0.9208984375,-0.2177734375,0.37158203125,1.5,44.625,-52.625
0,38,167,295,92,48,140,68,31,0.485107421875,0.40185546875,-0.407958984375,0.66082763671875,0.8720703125,-0.1904296875,0.37109375,17.375,56.5625,-59.9375
0,38,153,293,82,51,157,86,39,0.4959716796875,0.4000244140625,-0.3963623046875,0.66094970703125,0.8251953125,-0.1083984375,0.341796875,13.5,63.8125,-62.75
0,30,98,202,86,43,177,138,38,0.5074462890625,0.39715576171875,-0.38525390625,0.6605224609375,0.84228515625,-0.04443359375,0.4169921875,4.6875,63.6875,-60.375
0,37,77,171,78,40,187,175,37,0.518798828125,0.393310546875,-0.3743896484375,0.66021728515625,0.86181640625,-0.0712890625,0.46728515625,2.75,65.3125,-59.1875
0,38,67,170,79,40,200,204,43,0.529052734375,0.3885498046875,-0.36346435546875,0.6610107421875,0.82568359375,-0.07763671875,0.48291015625,5.5625,68.875,-51.625
0,42,60,168,65,38,194,207,44,0.537841796875,0.38446044921875,-0.35333251953125,0.66180419921875,0.82568359375,-0.08203125,0.4677734375,8.9375,63.3125,-47.25
0,54,56,142,60,39,224,315,128,0.54608154296875,0.3812255859375,-0.3441162109375,0.66180419921875,0.85986328125,-0.05126953125,0.46240234375,7.125,57.25,-45.625
0,67,61,143,57,35,230,382,156,0.55487060546875,0.37811279296875,-0.33441162109375,0.66119384765625,0.8837890625,-0.0263671875,0.546875,6.5625,55.25,-50.6875
0,64,61,126,59,36,216,373,163,0.56500244140625,0.37353515625,-0.32568359375,0.65960693359375,0.88037109375,-0.06884765625,0.50634765625,-4.3125,62.0,-57.3125
0,65,61,117,67,35,217,371,167,0.57611083984375,0.3680419921875,-0.31707763671875,0.65728759765625,0.88330078125,0.00634765625,0.48095703125,-13.375,68.1875,-57.625
0,66,56,117,65,35,200,370,181,0.58770751953125,0.36248779296875,-0.30767822265625,0.654541015625,0.82177734375,0.10498046875,0.5390625,-15.5,67.125,-57.8125
0,74,52,109,65,30,159,319,140,0.59857177734375,0.35699462890625,-0.29931640625,0.65155029296875,0.82568359375,0.111328125,0.56396484375,-18.0,61.875,-54.125
0,70,45,75,57,30,131,241,119,0.60772705078125,0.35101318359375,-0.29205322265625,0.649658203125,0.8212890625,0.0556640625,0.60400390625,-15.6875,58.4375,-44.75
0,74,42,71,50,26,131,232,122,0.61444091796875,0.34661865234375,-0.283447265625,0.6495361328125,0.81396484375,0.080078125,0.6044921875,2.3125,57.5625,-34.125
0,79,43,63,38,27,99,237,134,0.61962890625,0.343017578125,-0.2734375,0.65081787109375,0.8212890625,0.1103515625,0.58642578125,14.3125,62.8125,-26.625
0,83,44,58,38,30,95,237,121,0.62481689453125,0.33807373046875,-0.2635498046875,0.65252685546875,0.7919921875,0.1162109375,0.6064453125,9.8125,67.25,-23.25
0,83,46,53,39,34,91,200,139,0.63018798828125,0.33203125,-0.25341796875,0.65447998046875,0.7607421875,0.11572265625,0.61376953125,7.25,72.875,-22.0
0,84,45,52,41,40,129,170,147,0.6356201171875,0.32440185546875,-0.2430419921875,0.656982421875,0.77783203125,0.11865234375,0.5908203125,2.75,84.9375,-18.875
0,82,47,42,39,41,159,169,144,0.64129638671875,0.3143310546875,-0.23272705078125,0.66009521484375,0.73291015625,0.119140625,0.56591796875,-6.0,96.625,-14.1875
0,78,47,41,43,54,200,223,141,0.64727783203125,0.301025390625,-0.22259521484375,0.6639404296875,0.6845703125,0.10302734375,0.5673828125,-16.5625,104.25,-9.1875
0,81,47,45,45,54,217,267,162,0.65264892578125,0.2860107421875,-0.2122802734375,0.66864013671875,0.64111328125,0.029296875,0.5390625,-19.4375,112.3125,-2.125
0,77,46,73,44,62,288,354,276,0.65576171875,0.27105712890625,-0.20166015625,0.675048828125,0.54248046875,-0.0263671875,0.57470703125,-11.25,112.375,11.6875
0,76,45,72,42,62,284,371,285,0.65509033203125,0.2584228515625,-0.1905517578125,0.683837890625,0.50244140625,0.02099609375,0.666015625,7.25,103.125,32.375
0,91,44,76,48,68,301,388,318,0.65264892578125,0.24774169921875,-0.17852783203125,0.69329833984375,0.57080078125,0.0830078125,0.65869140625,20.6875,100.0,39.0625
0,99,43,75,41,58,300,361,365,0.651123046875,0.23516845703125,-0.16583251953125,0.7022705078125,0.5947265625,0.15625,0.6455078125,13.25,111.0625,35.3125
0,98,42,73,40,61,294,355,375,0.65081787109375,0.219482421875,-0.1536865234375,0.7103271484375,0.51708984375,0.14501953125,0.69970703125,-2.9375,120.4375,30.5
0,109,43,43,43,59,242,312,303,0.6502685546875,0.2027587890625,-0.14300537109375,0.718017578125,0.4541015625,0.08984375,0.7919921875,-12.125,117.5,32.4375
0,174,61,50,50,68,286,326,396,0.648681640625,0.1864013671875,-0.13385009765625,0.7255859375,0.47119140625,0.0517578125,0.85986328125,-15.375,109.375,37.25
0,180,57,45,45,62,260,312,397,0.645751953125,0.17291259765625,-0.125244140625,0.7330322265625,0.42578125,0.05078125,0.93994140625,-6.0,93.5625,41.4375
0,181,57,45,47,67,232,292,355,0.64105224609375,0.161376953125,-0.11590576171875,0.74127197265625,0.421875,0.03466796875,0.904296875,6.9375,90.4375,49.0625
0,188,91,41,47,73,228,258,354,0.635986328125,0.14990234375,-0.106689453125,0.7493896484375,0.3798828125,0.02587890625,0.87255859375,6.9375,89.5,50.375
0,183,181,50,47,75,209,191,361,0.631103515625,0.13812255859375,-0.09832763671875,0.7568359375,0.28173828125,-0.05224609375,0.97900390625,7.125,80.125,46.1875
0,128,205,45,38,65,120,115,246,0.62615966796875,0.12939453125,-0.09033203125,0.76348876953125,0.251953125,-0.1025390625,0.9794921875,19.1875,64.75,41.5
0,118,295,48,40,66,100,163,222,0.6209716796875,0.1248779296875,-0.08184814453125,0.7694091796875,0.24755859375,-0.0078125,1.00830078125,30.5625,47.75,39.0
0,111,357,57,42,62,87,163,219,0.61541748046875,0.12310791015625,-0.0750732421875,0.77484130859375,0.2412109375,0.05126953125,1.009765625,29.125,29.375,40.1875
0,96,431,73,43,52,76,165,189,0.6099853515625,0.12103271484375,-0.07183837890625,0.77978515625,0.224609375,0.02587890625,0.99267578125,13.6875,17.5,40.1875
0,94,464,93,44,39,59,161,157,0.60540771484375,0.11846923828125,-0.0716552734375,0.78369140625,0.201171875,-0.0185546875,0.95703125,-0.0625,8.0,34.0625
0,93,481,101,46,47,50,159,143,0.60235595703125,0.1165771484375,-0.07305908203125,0.78619384765625,0.17919921875,-0.06396484375,0.9404296875,-3.8125,-1.6875,22.75
0,104,469,103,50,56,93,92,144,0.59881591796875,0.11865234375,-0.07281494140625,0.78863525390625,0.17822265625,-0.13037109375,0.93505859375,22.3125,-14.25,20.375
0,167,692,248,60,65,107,102,208,0.5943603515625,0.12530517578125,-0.06988525390625,0.791259765625,0.22705078125,-0.08935546875,0.9453125,48.875,-23.5625,21.8125
0,180,668,266,63,65,109,91,215,0.5916748046875,0.133056640625,-0.06640625,0.79229736328125,0.28125,-0.109375,0.853515625,54.625,-22.125,7.0
0,182,646,294,64,67,111,89,239,0.5892333984375,0.14288330078125,-0.06085205078125,0.7928466796875,0.302734375,0.00537109375,0.837890625,64.5625,-23.4375,3.4375
0,183,666,300,66,64,112,89,266,0.58514404296875,0.15509033203125,-0.0528564453125,0.79412841796875,0.31640625,0.19775390625,0.90234375,74.375,-27.625,14.375
0,178,675,309,68,62,79,83,251,0.581298828125,0.1661376953125,-0.047119140625,0.79510498046875,0.3330078125,0.28955078125,0.95068359375,55.3125,-30.5625,16.0625
0,126,439,227,85,75,61,62,195,0.57891845703125,0.1724853515625,-0.04705810546875,0.79547119140625,0.345703125,0.2177734375,0.95703125,17.6875,-28.6875,12.0
0,110,437,241,92,79,58,56,183,0.5770263671875,0.1756591796875,-0.05145263671875,0.7958984375,0.3505859375,0.04638671875,0.890625,-3.0625,-27.25,11.6875
0,101,422,256,127,110,54,49,148,0.5745849609375,0.18096923828125,-0.0526123046875,0.79638671875,0.33984375,0.033203125,0.8671875,20.3125,-27.3125,10.5
0,98,502,360,136,118,53,46,91,0.5718994140625,0.1885986328125,-0.050537109375,0.79669189453125,0.376953125,0.10009765625,0.85498046875,38.9375,-25.625,7.5625
0,84,457,378,136,117,52,42,65,0.57012939453125,0.195068359375,-0.0474853515625,0.79656982421875,0.41748046875,0.1279296875,0.83056640625,37.375,-14.5,1.5625
0,76,521,375,125,106,61,50,61,0.56915283203125,0.1993408203125,-0.0438232421875,0.79644775390625,0.3544921875,0.17333984375,0.865234375,29.875,-7.5625,-0.9375
0,66,517,355,126,106,61,51,49,0.5672607421875,0.203857421875,-0.03961181640625,0.796875,0.32421875,0.146484375,0.888671875,37.5625,-9.25,4.125
0,82,551,326,96,81,148,56,50,0.56536865234375,0.20892333984375,-0.03424072265625,0.797119140625,0.33447265625,0.17236328125,0.89892578125,43.6875,-7.9375,2.375
0,80,438,235,94,73,160,60,48,0.564453125,0.21337890625,-0.0283203125,0.79681396484375,0.33056640625,0.2529296875,0.9296875,39.0625,-4.875,-2.8125
0,81,444,202,92,68,162,59,42,0.565673828125,0.2152099609375,-0.0235595703125,0.795654296875,0.361328125,0.2431640625,0.89208984375,23.25,5.5,-14.375
0,77,319,190,87,88,164,67,43,0.56890869140625,0.21478271484375,-0.01959228515625,0.7935791015625,0.3212890625,0.27685546875,0.8798828125,8.0,10.6875,-24.25
0,76,304,189,78,98,191,93,44,0.5733642578125,0.21258544921875,-0.01727294921875,0.791015625,0.3203125,0.2861328125,0.91455078125,-6.875,12.3125,-28.8125
0,55,233,169,81,222,156,118,43,0.5791015625,0.20855712890625,-0.0167236328125,0.78790283203125,0.298828125,0.22314453125,0.94189453125,-18.3125,13.0625,-35.625
0,54,201,104,69,239,201,181,61,0.58477783203125,0.20428466796875,-0.016845703125,0.78485107421875,0.27978515625,0.14111328125,0.9619140625,-16.5625,10.625,-35.9375
0,59,193,77,69,243,253,223,75,0.5904541015625,0.201904296875,-0.01641845703125,0.78118896484375,0.26416015625,0.17822265625,1.01708984375,-9.25,1.3125,-38.0
0,74,228,72,91,315,342,252,94,0.59698486328125,0.2000732421875,-0.01629638671875,0.77667236328125,0.287109375,0.2529296875,1.0546875,-14.375,-2.0,-42.625
0,80,228,68,102,352,374,280,99,0.6041259765625,0.1976318359375,-0.01953125,0.77166748046875,0.33935546875,0.26904296875,0.99072265625,-34.25,-6.25,-43.875
0,88,223,61,97,320,398,290,192,0.6136474609375,0.1939697265625,-0.0263671875,0.764892578125,0.341796875,0.32861328125,0.94873046875,-62.625,-13.75,-54.625
0,97,225,59,100,326,395,265,208,0.62384033203125,0.18963623046875,-0.036376953125,0.75726318359375,0.32373046875,0.26708984375,0.8994140625,-77.625,-22.9375,-57.75
0,94,231,58,103,337,403,243,213,0.63348388671875,0.1854248046875,-0.04791259765625,0.7496337890625,0.35546875,0.158203125,0.8603515625,-77.875,-26.5625,-56.125
0,85,225,53,85,280,359,232,212,0.64239501953125,0.1806640625,-0.05853271484375,0.742431640625,0.35791015625,0.15087890625,0.88330078125,-75.25,-21.4375,-51.5625
0,88,227,53,73,246,321,193,217,0.65130615234375,0.17626953125,-0.068115234375,0.73480224609375,0.3603515625,0.11962890625,0.8857421875,-68.3125,-19.6875,-55.125
0,90,215,52,65,207,317,176,144,0.66058349609375,0.1724853515625,-0.076416015625,0.7265625,0.380859375,0.0595703125,0.8759765625,-58.4375,-16.5,-61.6875
0,77,210,50,63,186,319,187,113,0.67022705078125,0.1700439453125,-0.0831298828125,0.717529296875,0.357421875,0.046875,0.85205078125,-47.25,-18.0625,-68.3125
0,80,212,56,55,181,287,184,126,0.679443359375,0.17047119140625,-0.088623046875,0.70806884765625,0.3681640625,0.02001953125,0.88037109375,-29.3125,-26.1875,-71.125
0,88,181,62,57,163,263,177,165,0.6876220703125,0.17376708984375,-0.09326171875,0.69873046875,0.4365234375,0.01708984375,0.896484375,-13.0,-31.75,-69.6875
0,81,136,56,51,137,329,197,160,0.6956787109375,0.17803955078125,-0.097900390625,0.68896484375,0.42822265625,0.1376953125,0.890625,-16.5625,-37.125,-68.1875
0,89,129,61,52,132,311,189,159,0.7042236328125,0.18157958984375,-0.10455322265625,0.67828369140625,0.40576171875,0.15234375,0.86962890625,-29.625,-44.5,-70.625
0,89,125,62,53,123,286,164,162,0.71307373046875,0.18463134765625,-0.11297607421875,0.666748046875,0.43017578125,0.12255859375,0.86083984375,-37.5625,-49.625,-73.9375
0,84,87,56,55,91,273,158,139,0.7213134765625,0.18804931640625,-0.12200927734375,0.6552734375,0.45654296875,0.1328125,0.841796875,-38.8125,-53.125,-70.75
0,73,59,48,50,75,267,133,75,0.72930908203125,0.19061279296875,-0.13226318359375,0.64361572265625,0.458984375,0.12109375,0.833984375,-45.9375,-55.8125,-68.5625
0,76,57,51,58,117,165,91,65,0.7371826171875,0.192626953125,-0.14300537109375,0.631591796875,0.46728515625,0.0791015625,0.8408203125,-47.5,-57.3125,-70.0
0,56,59,47,71,124,173,90,60,0.7447509765625,0.195556640625,-0.15283203125,0.61944580078125,0.5,0.0703125,0.81396484375,-40.0625,-55.375,-71.5
0,56,56,49,97,126,224,110,49,0.75140380859375,0.19989013671875,-0.1630859375,0.60723876953125,0.48095703125,0.0625,0.796875,-34.0,-65.1875,-69.4375
0,60,57,54,130,144,226,102,47,0.75726318359375,0.2054443359375,-0.17279052734375,0.59527587890625,0.4755859375,0.05810546875,0.8349609375,-25.3125,-70.5625,-67.4375
0,60,57,55,133,148,221,103,43,0.76220703125,0.21258544921875,-0.18206787109375,0.5836181640625,0.49609375,0.07958984375,0.79150390625,-16.375,-73.1875,-64.5
0,58,48,54,133,119,224,103,36,0.76641845703125,0.220703125,-0.19207763671875,0.57177734375,0.49755859375,0.09765625,0.7900390625,-14.625,-82.4375,-62.625
0,64,46,51,149,119,193,93,37,0.76953125,0.22991943359375,-0.2025146484375,0.5601806640625,0.5517578125,0.111328125,0.78564453125,-9.8125,-87.125,-58.4375
0,67,47,50,136,112,113,58,31,0.7713623046875,0.239990234375,-0.21337890625,0.54937744140625,0.58154296875,0.1484375,0.748046875,-6.875,-91.3125,-50.125
0,68,51,50,117,88,89,49,30,0.7723388671875,0.2490234375,-0.22576904296875,0.53887939453125,0.5947265625,0.13720703125,0.705078125,-13.6875,-94.5,-43.5625
0,69,55,51,124,95,81,42,32,0.77288818359375,0.25750732421875,-0.23895263671875,0.52838134765625,0.6357421875,0.1376953125,0.70361328125,-17.625,-97.0,-40.875
0,68,58,53,130,100,67,39,31,0.77227783203125,0.26531982421875,-0.25323486328125,0.51861572265625,0.67041015625,0.1162109375,0.64990234375,-20.3125,-98.3125,-32.4375
0,63,60,74,144,86,57,34,28,0.77093505859375,0.2730712890625,-0.26715087890625,0.50958251953125,0.66455078125,0.13134765625,0.6123046875,-18.375,-97.0,-26.75
0,61,62,84,198,107,55,38,30,0.76934814453125,0.27984619140625,-0.28070068359375,0.50091552734375,0.64013671875,0.14453125,0.59521484375,-21.1875,-94.8125,-22.3125
0,59,59,91,240,117,56,39,30,0.7672119140625,0.285888671875,-0.294921875,0.49249267578125,0.65771484375,0.15869140625,0.56201171875,-25.8125,-95.3125,-16.625
0,62,58,99,250,117,44,35,28,0.764404296875,0.29083251953125,-0.31011962890625,0.484619140625,0.658203125,0.13232421875,0.525390625,-30.75,-96.625,-9.8125
0,62,59,125,282,129,42,37,32,0.7613525390625,0.294189453125,-0.3255615234375,0.4771728515625,0.662109375,0.12109375,0.54296875,-36.375,-96.125,-4.25
0,62,59,167,277,138,42,37,34,0.75787353515625,0.2972412109375,-0.34027099609375,0.4705810546875,0.70703125,0.10546875,0.52392578125,-32.875,-89.9375,-0.375
0,64,56,163,253,133,44,33,33,0.7542724609375,0.29949951171875,-0.35430908203125,0.4644775390625,0.72119140625,0.1171875,0.5166015625,-34.25,-85.0625,3.0
0,61,57,194,228,130,45,34,33,0.75103759765625,0.2998046875,-0.368408203125,0.45855712890625,0.74951171875,0.1240234375,0.52978515625,-43.0,-80.5,8.0625
0,60,58,234,214,123,47,34,32,0.74786376953125,0.297607421875,-0.38336181640625,0.45281982421875,0.76708984375,0.1064453125,0.53076171875,-55.8125,-78.125,14.8125
0,62,54,252,176,104,43,31,30,0.74432373046875,0.29449462890625,-0.39825439453125,0.4478759765625,0.767578125,0.05712890625,0.54541015625,-55.8125,-77.3125,19.3125
0,59,52,264,185,98,44,32,27,0.7401123046875,0.29254150390625,-0.41162109375,0.44403076171875,0.802734375,0.04296875,0.51953125,-43.1875,-72.4375,20.125
0,54,54,274,191,91,41,31,27,0.73577880859375,0.29071044921875,-0.4246826171875,0.44012451171875,0.82177734375,0.005859375,0.466796875,-41.6875,-69.25,18.125
0,58,73,274,188,93,34,29,26,0.7310791015625,0.28765869140625,-0.43829345703125,0.43658447265625,0.826171875,-0.0390625,0.44140625,-45.25,-68.6875,22.375
0,55,73,272,190,90,33,29,27,0.7257080078125,0.28460693359375,-0.45208740234375,0.43353271484375,0.85546875,-0.033203125,0.40234375,-44.5,-68.5,27.5625
0,43,72,269,186,85,32,28,26,0.719482421875,0.28131103515625,-0.46588134765625,0.431396484375,0.8876953125,-0.01904296875,0.4111328125,-42.75,-69.9375,36.4375
0,40,71,322,207,90,32,25,28,0.71258544921875,0.277587890625,-0.47943115234375,0.43035888671875,0.90576171875,-0.03662109375,0.4189453125,-40.0625,-69.3125,43.3125
0,41,78,335,189,81,35,25,28,0.705322265625,0.274169921875,-0.49224853515625,0.4300537109375,0.900390625,-0.0810546875,0.3876953125,-33.8125,-66.5625,43.25
0,36,70,347,173,68,37,27,30,0.69732666015625,0.2711181640625,-0.50482177734375,0.43048095703125,0.94775390625,-0.103515625,0.35693359375,-28.375,-65.8125,46.75
0,41,73,379,180,68,37,27,28,0.68927001953125,0.26910400390625,-0.51629638671875,0.43121337890625,1.01220703125,-0.072265625,0.32861328125,-21.875,-62.0625,47.1875
0,47,75,387,207,85,40,29,30,0.68341064453125,0.265869140625,-0.52679443359375,0.42974853515625,1.01513671875,0.00146484375,0.34619140625,-36.375,-54.4375,40.6875
0,48,78,395,170,78,43,28,29,0.67974853515625,0.26055908203125,-0.5369873046875,0.4261474609375,0.9951171875,-0.04443359375,0.3466796875,-52.75,-46.5,30.9375
0,47,85,405,185,84,41,31,31,0.67706298828125,0.2537841796875,-0.5467529296875,0.42205810546875,1.01611328125,-0.1640625,0.32763671875,-58.5,-38.5625,23.625
0,50,91,486,246,109,42,32,32,0.673828125,0.25,-0.55426025390625,0.419677734375,1.03515625,-0.22998046875,0.306640625,-34.125,-35.375,15.0625
0,54,122,641,321,148,49,37,37,0.6710205078125,0.2496337890625,-0.55865478515625,0.418701171875,1.03759765625,-0.14306640625,0.3203125,-11.625,-29.5625,10.5
0,59,189,791,331,152,58,45,48,0.6695556640625,0.24822998046875,-0.56268310546875,0.41644287109375,1.05322265625,-0.14013671875,0.2734375,-20.4375,-20.875,5.8125
0,61,202,796,359,168,59,49,51,0.66949462890625,0.24566650390625,-0.5665283203125,0.41290283203125,1.0244140625,-0.1640625,0.2607421875,-30.0625,-14.1875,-0.9375
0,62,209,838,481,229,67,51,53,0.66949462890625,0.24517822265625,-0.56829833984375,0.41070556640625,1.00439453125,-0.13037109375,0.314453125,-14.0,-13.5625,-3.3125
0,69,212,790,469,236,72,57,54,0.6689453125,0.24774169921875,-0.568603515625,0.40966796875,1.0244140625,-0.12744140625,0.216796875,6.375,-8.5625,-9.625
0,70,197,644,430,218,102,72,55,0.67041015625,0.24664306640625,-0.569091796875,0.40716552734375,1.0,-0.1669921875,0.236328125,-15.1875,2.0625,-10.4375
0,63,140,448,419,215,198,128,46,0.6708984375,0.24609375,-0.56890869140625,0.406982421875,0.88134765625,-0.08544921875,0.2998046875,-4.375,-2.75,1.8125
0,60,120,408,406,211,247,137,42,0.67010498046875,0.24530029296875,-0.5693359375,0.408203125,0.8740234375,-0.1845703125,0.275390625,1.4375,-5.0625,5.5625
0,58,95,288,242,141,271,149,39,0.6695556640625,0.2454833984375,-0.5687255859375,0.40985107421875,0.90625,-0.244140625,0.25146484375,9.6875,0.125,-1.5
0,46,78,292,204,107,308,162,35,0.66998291015625,0.2467041015625,-0.56634521484375,0.41168212890625,0.90380859375,-0.2568359375,0.2421875,17.8125,8.9375,-10.0625
0,37,70,301,173,104,381,185,34,0.67230224609375,0.24725341796875,-0.5628662109375,0.412353515625,0.89501953125,-0.21240234375,0.24658203125,10.3125,18.875,-15.75
0,37,53,273,149,94,349,198,35,0.6761474609375,0.24700927734375,-0.558837890625,0.41168212890625,0.89208984375,-0.17529296875,0.2392578125,1.9375,27.5625,-20.375
0,37,47,217,96,71,360,199,36,0.680908203125,0.2471923828125,-0.553955078125,0.4102783203125,0.953125,-0.123046875,0.23974609375,1.25,33.0625,-24.625
0,38,46,246,78,80,401,242,40,0.68707275390625,0.247314453125,-0.5479736328125,0.407958984375,1.01953125,-0.13134765625,0.23876953125,-0.75,43.3125,-33.75
0,38,36,213,75,81,415,238,44,0.6943359375,0.24652099609375,-0.54156494140625,0.4046630859375,0.97900390625,-0.150390625,0.26220703125,-7.6875,47.75,-39.75
0,42,38,189,75,71,357,233,40,0.70098876953125,0.2464599609375,-0.53485107421875,0.40228271484375,0.9345703125,-0.126953125,0.29638671875,-0.5625,44.375,-37.25
0,43,38,181,59,66,358,201,38,0.70654296875,0.248046875,-0.52752685546875,0.40118408203125,0.93603515625,-0.08349609375,0.330078125,12.1875,40.5,-33.1875
0,44,41,175,60,62,322,199,38,0.71234130859375,0.25079345703125,-0.5189208984375,0.400390625,0.97216796875,-0.0068359375,0.35595703125,19.1875,43.9375,-33.375
0,44,38,120,48,45,258,147,34,0.71832275390625,0.25396728515625,-0.51031494140625,0.3988037109375,1.01318359375,0.06103515625,0.349609375,16.625,45.3125,-34.75
0,43,39,115,47,43,221,175,32,0.72576904296875,0.25408935546875,-0.50177001953125,0.39605712890625,1.0419921875,0.00927734375,0.32421875,0.4375,58.3125,-38.5
0,39,36,104,44,52,256,161,35,0.73504638671875,0.2518310546875,-0.49169921875,0.39306640625,0.9716796875,-0.005859375,0.3623046875,-9.0625,72.5625,-40.875
0,43,37,98,41,57,256,200,45,0.74395751953125,0.24920654296875,-0.48065185546875,0.3916015625,0.9189453125,-0.021484375,0.4013671875,-2.75,76.5625,-35.875
0,44,37,80,35,54,256,211,47,0.751220703125,0.24810791015625,-0.4693603515625,0.39208984375,0.93994140625,-0.0166015625,0.44580078125,12.125,71.75,-28.75
0,54,35,55,36,54,266,210,58,0.75750732421875,0.24896240234375,-0.4571533203125,0.39385986328125,0.966796875,0.0625,0.43310546875,25.75,74.125,-23.375
0,55,35,44,34,51,243,186,57,0.76397705078125,0.2491455078125,-0.445068359375,0.3951416015625,0.93896484375,0.13037109375,0.45166015625,18.75,74.4375,-20.4375
0,58,37,45,36,46,206,199,61,0.77130126953125,0.246826171875,-0.4327392578125,0.39599609375,0.9150390625,0.0634765625,0.466796875,8.4375,83.3125,-23.375
0,57,39,41,35,42,206,160,55,0.77923583984375,0.24285888671875,-0.419189453125,0.3975830078125,0.8623046875,0.01806640625,0.50634765625,6.625,92.75,-21.6875
0,65,42,39,34,46,212,172,68,0.7864990234375,0.23992919921875,-0.40423583984375,0.40045166015625,0.84228515625,0.05029296875,0.53662109375,17.875,96.5,-18.0
0,61,48,41,34,42,185,163,60,0.793212890625,0.23834228515625,-0.38824462890625,0.404052734375,0.82958984375,0.0859375,0.5712890625,27.6875,98.0625,-16.0625
0,65,46,39,34,42,172,161,61,0.799560546875,0.2366943359375,-0.3712158203125,0.40850830078125,0.79150390625,0.0986328125,0.587890625,32.9375,101.75,-13.8125
0,64,44,39,32,41,138,136,58,0.80548095703125,0.23504638671875,-0.35345458984375,0.4134521484375,0.7763671875,0.1455078125,0.6171875,35.8125,104.6875,-11.125
0,66,44,40,33,39,116,127,64,0.81085205078125,0.2330322265625,-0.33587646484375,0.418701171875,0.765625,0.1611328125,0.634765625,34.8125,104.625,-7.4375
0,60,43,43,35,34,83,79,56,0.8162841796875,0.2301025390625,-0.3172607421875,0.4241943359375,0.7763671875,0.13916015625,0.64990234375,33.875,112.625,-6.25
0,69,40,44,37,36,70,68,61,0.82196044921875,0.2265625,-0.2960205078125,0.43048095703125,0.7470703125,0.1455078125,0.65869140625,38.375,128.125,-5.875
0,66,45,44,36,35,67,60,60,0.82781982421875,0.22235107421875,-0.27252197265625,0.43701171875,0.681640625,0.17578125,0.68701171875,41.125,140.6875,-6.5625
0,68,58,41,35,34,64,53,59,0.83331298828125,0.216796875,-0.24896240234375,0.44329833984375,0.61572265625,0.181640625,0.71728515625,34.5625,143.0,-4.875
0,67,65,43,35,32,40,45,53,0.83758544921875,0.21087646484375,-0.22607421875,0.4503173828125,0.56884765625,0.13525390625,0.76904296875,34.75,139.625,2.3125
0,76,67,39,40,31,38,36,45,0.840087890625,0.2066650390625,-0.2027587890625,0.4586181640625,0.54638671875,0.125,0.79931640625,47.9375,136.625,10.3125
0,69,69,37,46,32,31,35,40,0.8408203125,0.20465087890625,-0.17926025390625,0.4678955078125,0.5087890625,0.193359375,0.7900390625,61.5,130.875,17.4375
0,71,69,38,49,36,33,35,47,0.8406982421875,0.2027587890625,-0.156005859375,0.47723388671875,0.45654296875,0.24169921875,0.78125,62.125,128.5625,20.375
0,65,62,39,58,40,31,34,45,0.84027099609375,0.199462890625,-0.1334228515625,0.486083984375,0.390625,0.21337890625,0.77685546875,53.625,128.0,20.625
0,64,60,37,58,40,30,32,42,0.83880615234375,0.1962890625,-0.1114501953125,0.495361328125,0.35791015625,0.18701171875,0.77587890625,54.6875,124.875,25.875
0,66,77,38,55,41,27,33,51,0.8358154296875,0.19366455078125,-0.09088134765625,0.5054931640625,0.33349609375,0.2451171875,0.79638671875,54.875,116.125,36.0625
0,68,99,38,49,39,28,33,50,0.83160400390625,0.191162109375,-0.07257080078125,0.51629638671875,0.28076171875,0.2587890625,0.830078125,50.9375,104.5,44.9375
0,70,122,39,69,39,27,31,45,0.82659912109375,0.18878173828125,-0.0565185546875,0.52703857421875,0.2314453125,0.24609375,0.84375,44.875,90.9375,50.5625
0,84,137,40,63,39,30,33,44,0.8206787109375,0.1871337890625,-0.04241943359375,0.5380859375,0.18310546875,0.24609375,0.849609375,44.5625,77.375,56.75
0,89,349,58,82,55,33,33,46,0.8135986328125,0.18731689453125,-0.0301513671875,0.54949951171875,0.1708984375,0.22607421875,0.83203125,50.0625,64.0625,62.8125
0,88,431,84,107,91,34,31,40,0.8052978515625,0.1895751953125,-0.01898193359375,0.561279296875,0.18505859375,0.2763671875,0.83740234375,55.5625,53.875,69.8125
0,100,581,106,172,108,36,37,52,0.797119140625,0.1900634765625,-0.009765625,0.57293701171875,0.1728515625,0.34765625,0.81591796875,36.125,50.4375,72.0625
0,117,682,116,183,108,40,45,68,0.79010009765625,0.18646240234375,-0.00408935546875,0.58380126953125,0.111328125,0.294921875,0.7822265625,7.0,44.1875,69.125
0,119,737,155,196,113,42,48,70,0.78387451171875,0.1798095703125,-0.00201416015625,0.59417724609375,0.0791015625,0.10546875,0.80615234375,-7.375,35.3125,65.8125
0,128,733,194,283,127,47,55,78,0.7772216796875,0.1763916015625,-0.00103759765625,0.6038818359375,0.11669921875,0.10302734375,0.87646484375,4.9375,20.5625,64.5
0,125,708,272,331,134,49,56,76,0.7705078125,0.1766357421875,0.00140380859375,0.6124267578125,0.2001953125,0.244140625,0.82421875,16.1875,19.4375,58.625
0,118,623,280,308,123,47,52,71,0.7647705078125,0.175048828125,0.00360107421875,0.6199951171875,0.1962890625,0.29052734375,0.71728515625,0.875,25.25,52.0
0,102,552,290,299,122,43,45,56,0.75885009765625,0.1722412109375,0.0042724609375,0.6280517578125,0.099609375,0.27587890625,0.86669921875,-6.125,15.0625,57.6875
0,102,514,282,293,120,41,45,60,0.75189208984375,0.1708984375,0.001220703125,0.63671875,0.1474609375,0.20703125,0.98583984375,-5.8125,-5.125,66.125
0,90,436,268,227,106,34,38,52,0.7432861328125,0.17333984375,-0.0037841796875,0.64599609375,0.21923828125,0.189453125,1.03466796875,6.5,-23.5,75.5625
0,99,615,244,169,98,36,40,55,0.73345947265625,0.1795654296875,-0.00860595703125,0.65545654296875,0.236328125,0.2529296875,1.01025390625,19.75,-36.375,81.5625
0,104,630,279,179,99,37,39,53,0.72418212890625,0.18487548828125,-0.014892578125,0.66412353515625,0.27783203125,0.283203125,0.91455078125,6.0625,-36.875,77.5625
0,103,643,280,181,102,39,38,54,0.7174072265625,0.1844482421875,-0.024658203125,0.6712646484375,0.29736328125,0.29296875,0.88427734375,-36.1875,-30.375,66.8125
0,90,655,313,183,106,39,36,45,0.71258544921875,0.17974853515625,-0.03668212890625,0.67706298828125,0.263671875,0.1884765625,0.9365234375,-58.375,-27.9375,55.9375
0,90,708,339,180,101,39,37,46,0.7078857421875,0.17584228515625,-0.04876708984375,0.6822509765625,0.265625,0.08349609375,0.94677734375,-50.1875,-33.125,51.25
0,81,585,324,214,130,43,37,45,0.701904296875,0.17608642578125,-0.0592041015625,0.6875,0.31201171875,0.0205078125,0.93310546875,-22.6875,-40.5,51.9375
0,72,558,294,209,134,45,38,45,0.6947021484375,0.1812744140625,-0.065185546875,0.6929931640625,0.3388671875,0.0703125,0.8662109375,11.5625,-40.0625,52.6875
0,71,571,296,208,132,44,42,47,0.6871337890625,0.1890869140625,-0.06781005859375,0.6981201171875,0.32373046875,0.11474609375,0.861328125,33.0,-39.5625,49.4375
0,81,565,260,204,131,46,42,52,0.67938232421875,0.19873046875,-0.06787109375,0.7030029296875,0.330078125,0.1533203125,0.951171875,49.8125,-40.625,46.5625
0,81,544,240,188,128,46,42,50,0.67181396484375,0.2091064453125,-0.066162109375,0.70745849609375,0.36669921875,0.19287109375,0.9619140625,57.8125,-35.6875,41.9375
0,78,560,264,124,67,37,38,45,0.662109375,0.2235107421875,-0.0635986328125,0.71240234375,0.369140625,0.2998046875,0.89501953125,23.625,-22.6875,19.3125
0,74,541,258,108,63,34,35,40,0.6617431640625,0.2252197265625,-0.06488037109375,0.71209716796875,0.36767578125,0.28759765625,0.87060546875,-3.8125,-14.3125,4.4375
0,71,477,242,105,74,36,32,36,0.66339111328125,0.22357177734375,-0.067626953125,0.7108154296875,0.36376953125,0.2451171875,0.85009765625,-23.375,-6.375,-5.75
0,63,475,245,103,73,36,27,28,0.66619873046875,0.22015380859375,-0.0706787109375,0.708984375,0.3525390625,0.158203125,0.8525390625,-28.0625,-1.0625,-13.375
0,67,428,220,96,114,52,24,56,0.66925048828125,0.21710205078125,-0.07220458984375,0.70684814453125,0.33447265625,0.0986328125,0.85107421875,-17.625,2.125,-19.0625
0,84,341,144,68,120,61,31,107,0.67218017578125,0.21612548828125,-0.0712890625,0.7044677734375,0.30908203125,0.103515625,0.8603515625,0.25,0.625,-22.6875
0,105,347,127,60,122,67,50,154,0.675048828125,0.2177734375,-0.069091796875,0.701416015625,0.30859375,0.13330078125,0.8720703125,14.0625,-5.6875,-27.5
