,channel 1,channel 2,channel 3,channel 4,channel 5,channel 6,channel 7,channel 8,channel 9,channel 10,channel 11,channel 12,channel 13,channel 14,channel 15,channel 16,channel 17,channel 18
0,38,220,406,142,170,359,162,36,0.02484130859375,-0.1715087890625,0.197509765625,-0.96490478515625,0.0048828125,-0.43701171875,-0.0185546875,-46.625,20.375,-31.5625
0,37,227,438,137,134,276,163,31,0.0230712890625,-0.16888427734375,0.2025146484375,-0.96435546875,0.0859375,-0.47998046875,0.15283203125,-5.375,18.5,-10.0
0,35,244,403,131,128,268,160,33,0.022705078125,-0.169189453125,0.20062255859375,-0.9647216796875,0.6435546875,-0.27294921875,0.8232421875,4.0625,19.5,7.4375
0,32,211,383,116,90,311,182,32,0.02294921875,-0.1671142578125,0.19744873046875,-0.9656982421875,0.482421875,-0.02197265625,0.6201171875,3.8125,27.0625,13.3125
0,31,208,374,95,77,241,152,29,0.02325439453125,-0.163330078125,0.200927734375,-0.96563720703125,0.46435546875,-0.11328125,0.68408203125,-30.625,34.6875,19.75
0,35,232,350,82,75,234,124,29,0.023193359375,-0.15667724609375,0.20953369140625,-0.96490478515625,0.4228515625,-0.2119140625,0.75537109375,-56.8125,47.4375,23.25
0,34,240,351,81,75,228,121,32,0.0235595703125,-0.14892578125,0.2198486328125,-0.9638671875,0.36181640625,-0.28173828125,0.81787109375,-64.625,48.8125,26.1875
0,44,200,294,83,67,217,120,32,0.0245361328125,-0.14202880859375,0.22979736328125,-0.9625244140625,0.39208984375,-0.34033203125,0.70849609375,-57.0625,47.4375,28.6875
0,45,250,320,82,69,108,59,33,0.02496337890625,-0.13751220703125,0.2335205078125,-0.9622802734375,0.85546875,-0.251953125,1.61376953125,-57.375,47.5,34.875
0,51,252,333,81,68,101,52,38,0.0294189453125,-0.1268310546875,0.25048828125,-0.9593505859375,-0.146484375,-0.5029296875,-0.07421875,-60.8125,45.9375,39.625
0,53,239,364,91,69,84,43,38,0.0294189453125,-0.12115478515625,0.25946044921875,-0.95770263671875,0.63037109375,-0.2548828125,1.34765625,-84.0,48.375,33.75
0,56,271,378,90,68,79,37,40,0.02764892578125,-0.11553955078125,0.2681884765625,-0.9560546875,0.671875,-0.26708984375,1.5517578125,-92.25,50.625,25.8125
0,50,284,384,92,67,89,39,40,0.02886962890625,-0.10614013671875,0.286865234375,-0.95166015625,-0.02880859375,-0.560546875,0.5693359375,-96.8125,40.75,26.0
0,52,324,356,91,65,76,35,39,0.03369140625,-0.0960693359375,0.30938720703125,-0.94549560546875,-0.34765625,-0.6875,0.0029296875,-90.9375,27.75,35.8125
0,59,501,367,92,66,77,37,41,0.037353515625,-0.09051513671875,0.321533203125,-0.94183349609375,0.20068359375,-0.5546875,0.9072265625,-78.1875,25.375,40.0
0,79,577,348,105,76,88,54,59,0.0380859375,-0.08935546875,0.324462890625,-0.94091796875,0.6396484375,-0.3466796875,1.75537109375,-75.25,22.625,32.3125
0,78,614,295,112,76,82,54,60,0.0406494140625,-0.084716796875,0.334228515625,-0.93780517578125,0.21337890625,-0.6923828125,0.94287109375,-61.125,23.3125,31.3125
0,86,684,306,114,112,66,52,63,0.045654296875,-0.0831298828125,0.33782958984375,-0.93646240234375,0.484375,-0.7451171875,1.2744140625,-37.3125,14.125,47.3125
0,98,710,301,116,118,78,54,68,0.0562744140625,-0.0782470703125,0.34063720703125,-0.93524169921875,0.24609375,-0.69287109375,0.70166015625,-6.25,13.625,74.0
0,104,658,289,123,125,80,61,78,0.064208984375,-0.0701904296875,0.34588623046875,-0.9334716796875,0.06494140625,-0.71142578125,0.8134765625,-25.5625,26.9375,60.0
0,96,798,252,108,136,72,52,71,0.07012939453125,-0.061279296875,0.35406494140625,-0.93060302734375,-0.0888671875,-0.74755859375,0.783203125,-41.4375,29.4375,46.0625
0,100,806,323,97,134,70,53,73,0.077392578125,-0.0533447265625,0.362060546875,-0.92742919921875,-0.1171875,-0.81884765625,0.84375,-41.375,20.9375,50.875
0,116,783,335,159,159,74,54,77,0.08685302734375,-0.04937744140625,0.36712646484375,-0.9248046875,0.0146484375,-0.79541015625,0.8671875,-29.25,2.0625,60.3125
0,110,785,370,238,175,67,54,73,0.09332275390625,-0.04681396484375,0.36517333984375,-0.925048828125,0.3095703125,-0.51708984375,0.9033203125,-3.3125,13.4375,53.125
0,101,786,380,248,182,145,60,60,0.09552001953125,-0.04449462890625,0.36279296875,-0.9259033203125,0.41455078125,-0.4423828125,1.5693359375,-36.75,26.6875,35.375
0,96,613,378,253,218,336,136,65,0.097900390625,-0.03387451171875,0.382080078125,-0.9183349609375,-0.5380859375,-0.86083984375,0.177734375,-78.25,33.25,17.875
0,91,647,379,257,223,367,142,62,0.099853515625,-0.023681640625,0.4056396484375,-0.90826416015625,-0.62353515625,-1.1015625,-0.0654296875,-84.8125,30.75,13.5625
0,64,742,357,233,213,369,147,57,0.0992431640625,-0.02252197265625,0.41424560546875,-0.90447998046875,0.0576171875,-1.05615234375,1.0302734375,-59.1875,17.8125,9.0625
0,55,840,326,154,199,398,183,58,0.0980224609375,-0.02398681640625,0.410400390625,-0.90631103515625,0.14697265625,-0.826171875,1.330078125,-8.6875,3.875,-1.5625
0,53,837,313,139,193,387,190,59,0.09820556640625,-0.02142333984375,0.41156005859375,-0.90582275390625,-0.49609375,-0.9482421875,0.310546875,21.75,-8.8125,-15.75
0,48,820,322,141,157,288,177,49,0.09576416015625,-0.02044677734375,0.41571044921875,-0.90423583984375,-0.580078125,-1.12939453125,-0.11376953125,32.5,-14.0,-36.375
0,47,743,275,182,180,292,190,48,0.08990478515625,-0.0284423828125,0.4073486328125,-0.90838623046875,0.18994140625,-0.81298828125,1.07080078125,30.0625,-20.8125,-41.625
0,41,600,313,175,176,306,198,46,0.08551025390625,-0.03546142578125,0.3985595703125,-0.9124755859375,0.0107421875,-0.73779296875,0.66943359375,51.4375,-29.5625,-41.875
0,39,344,410,175,200,299,186,47,0.08038330078125,-0.045654296875,0.39044189453125,-0.91595458984375,0.22802734375,-0.83935546875,0.7041015625,49.375,-34.9375,-43.125
0,38,224,434,179,201,299,179,45,0.07843017578125,-0.05255126953125,0.381103515625,-0.919677734375,-0.2666015625,-0.8984375,0.62939453125,66.75,-49.875,-45.3125
0,37,175,440,186,207,268,156,42,0.07794189453125,-0.061279296875,0.367431640625,-0.92474365234375,-0.08447265625,-0.78662109375,0.63525390625,88.25,-56.4375,-35.5
0,39,169,459,175,203,251,150,43,0.07757568359375,-0.0712890625,0.35272216796875,-0.9298095703125,-0.0380859375,-0.65673828125,0.72265625,84.4375,-62.875,-35.875
0,44,146,479,192,189,346,209,51,0.07525634765625,-0.08221435546875,0.34033203125,-0.9337158203125,0.0322265625,-0.65966796875,0.67529296875,72.25,-60.625,-44.5625
0,46,135,392,195,181,391,264,50,0.07269287109375,-0.0875244140625,0.33331298828125,-0.9359130859375,-0.482421875,-0.681640625,0.22705078125,64.1875,-52.9375,-55.3125
0,44,102,357,221,192,444,272,52,0.07177734375,-0.09588623046875,0.32861328125,-0.9368896484375,-0.26708984375,-0.84228515625,0.0537109375,65.8125,-59.4375,-42.75
0,44,89,332,218,186,493,312,53,0.06903076171875,-0.109130859375,0.30908203125,-0.9422607421875,0.52978515625,-0.41845703125,1.51318359375,66.6875,-58.6875,-35.375
0,41,70,276,194,167,573,360,57,0.06878662109375,-0.1171875,0.30035400390625,-0.944091796875,-0.25,-0.62060546875,0.2314453125,71.875,-62.125,-39.375
0,42,69,196,194,162,559,386,57,0.06707763671875,-0.125,0.29827880859375,-0.94390869140625,-0.21826171875,-0.6904296875,-0.0478515625,46.1875,-51.6875,-41.875
0,51,86,237,237,151,621,388,64,0.06231689453125,-0.13604736328125,0.291015625,-0.9449462890625,0.4609375,-0.423828125,0.94482421875,19.3125,-42.625,-38.8125
0,55,85,226,216,137,663,471,72,0.05682373046875,-0.1458740234375,0.2835693359375,-0.94610595703125,0.7001953125,-0.3603515625,1.59228515625,-8.25,-33.5625,-31.1875
0,58,83,225,210,127,688,515,77,0.05596923828125,-0.1510009765625,0.2879638671875,-0.94403076171875,0.02099609375,-0.71728515625,0.490234375,-9.0625,-34.125,-20.125
0,59,83,208,214,136,665,523,78,0.05914306640625,-0.15496826171875,0.29351806640625,-0.94146728515625,-0.31591796875,-0.93017578125,-0.11279296875,22.1875,-42.375,-12.6875
0,54,78,186,189,137,655,531,77,0.06146240234375,-0.16363525390625,0.28631591796875,-0.94207763671875,0.4267578125,-0.576171875,0.8388671875,37.375,-45.1875,-2.9375
0,45,58,124,123,138,684,573,80,0.06170654296875,-0.17608642578125,0.279541015625,-0.94183349609375,0.8388671875,-0.287109375,0.796875,16.9375,-40.6875,1.0625
0,76,60,124,115,141,659,575,132,0.06011962890625,-0.1824951171875,0.283935546875,-0.939453125,0.49267578125,-0.34912109375,0.6748046875,-38.9375,-20.75,-2.0
0,92,66,142,102,128,619,534,288,0.05694580078125,-0.18621826171875,0.2940673828125,-0.935791015625,0.42626953125,-0.38427734375,0.60107421875,-68.875,-5.8125,-2.625
0,130,82,171,83,119,613,517,319,0.05389404296875,-0.18841552734375,0.30523681640625,-0.931884765625,0.375,-0.52587890625,0.6416015625,-69.5625,-2.0,-3.375
0,168,164,169,85,113,624,474,385,0.052490234375,-0.19091796875,0.31524658203125,-0.92816162109375,0.4150390625,-0.6708984375,0.64111328125,-55.4375,-5.1875,2.625
0,209,311,170,85,98,515,412,468,0.05401611328125,-0.1937255859375,0.3221435546875,-0.92510986328125,0.43212890625,-0.7509765625,0.64501953125,-31.25,-11.5,12.875
0,208,322,163,66,104,460,339,463,0.057861328125,-0.196533203125,0.3245849609375,-0.92340087890625,0.44140625,-0.68896484375,0.625,-5.625,-15.5,22.125
0,208,358,159,67,105,437,375,423,0.06201171875,-0.19915771484375,0.32586669921875,-0.922119140625,0.4619140625,-0.60693359375,0.607421875,-2.25,-13.5,25.25
0,223,413,138,71,107,388,339,455,0.0655517578125,-0.20025634765625,0.3280029296875,-0.9208984375,0.4609375,-0.63134765625,0.59130859375,-5.0,-4.0,25.5625
0,211,434,143,71,114,338,343,414,0.06817626953125,-0.19866943359375,0.32806396484375,-0.9210205078125,0.3984375,-0.66064453125,0.62353515625,8.875,9.4375,19.4375
0,176,382,159,84,114,294,319,325,0.0706787109375,-0.19622802734375,0.32525634765625,-0.92236328125,0.3896484375,-0.6552734375,0.63525390625,25.5,13.9375,16.75
0,177,435,164,91,105,316,298,317,0.07464599609375,-0.1937255859375,0.32257080078125,-0.92352294921875,0.42578125,-0.64599609375,0.61376953125,27.5625,14.25,26.75
0,172,446,160,89,108,314,230,276,0.07965087890625,-0.18939208984375,0.31964111328125,-0.925048828125,0.345703125,-0.67431640625,0.68798828125,29.875,17.25,31.625
0,139,408,171,92,124,297,248,181,0.084228515625,-0.1842041015625,0.3138427734375,-0.92767333984375,0.3037109375,-0.681640625,0.66064453125,49.625,21.375,25.625
0,123,366,177,96,125,272,225,150,0.0885009765625,-0.180419921875,0.3067626953125,-0.93035888671875,0.3505859375,-0.62939453125,0.67822265625,53.0,17.0625,22.875
0,116,375,164,97,134,260,207,128,0.09295654296875,-0.17767333984375,0.300048828125,-0.9326171875,0.3671875,-0.64404296875,0.7060546875,50.625,11.5625,23.3125
0,100,342,191,96,133,195,183,119,0.097900390625,-0.17535400390625,0.29351806640625,-0.93463134765625,0.33447265625,-0.6455078125,0.7119140625,50.0,6.9375,24.375
0,94,341,260,101,137,155,144,92,0.10333251953125,-0.17279052734375,0.2857666015625,-0.93695068359375,0.3095703125,-0.587890625,0.72412109375,55.1875,5.8125,25.875
0,71,390,290,111,145,120,97,67,0.10943603515625,-0.17022705078125,0.27630615234375,-0.9395751953125,0.31005859375,-0.486328125,0.779296875,59.25,3.8125,29.3125
0,56,423,308,101,138,108,81,60,0.11431884765625,-0.1680908203125,0.269287109375,-0.94140625,0.29296875,-0.43359375,0.78173828125,40.9375,3.375,25.0625
0,52,427,330,88,128,88,62,53,0.117919921875,-0.16741943359375,0.2650146484375,-0.9422607421875,0.32275390625,-0.470703125,0.81396484375,23.8125,-0.3125,19.6875
0,54,413,339,121,178,84,54,44,0.120849609375,-0.16717529296875,0.26165771484375,-0.94287109375,0.33447265625,-0.54736328125,0.84716796875,21.3125,-0.5625,15.5625
0,56,401,365,153,216,86,47,40,0.12548828125,-0.1666259765625,0.25665283203125,-0.9437255859375,0.36328125,-0.50732421875,0.8603515625,30.3125,-1.1875,24.75
0,50,380,406,150,206,79,38,37,0.13189697265625,-0.16632080078125,0.2518310546875,-0.9442138671875,0.36279296875,-0.45751953125,0.83837890625,28.5,-4.5625,35.4375
0,50,361,400,156,204,81,36,35,0.13714599609375,-0.165283203125,0.24969482421875,-0.9442138671875,0.36962890625,-0.521484375,0.8515625,16.4375,3.25,32.625
0,55,347,489,181,248,87,45,42,0.142333984375,-0.16326904296875,0.24822998046875,-0.9442138671875,0.357421875,-0.564453125,0.8740234375,15.3125,8.4375,32.9375
0,52,342,527,182,239,79,43,40,0.14910888671875,-0.160400390625,0.24530029296875,-0.94439697265625,0.36572265625,-0.5234375,0.8818359375,23.625,10.6875,42.5
0,51,328,566,215,213,80,43,45,0.1573486328125,-0.15655517578125,0.24371337890625,-0.94415283203125,0.25830078125,-0.50830078125,0.84716796875,18.1875,9.625,50.4375
0,51,313,572,241,235,88,48,45,0.16400146484375,-0.15216064453125,0.24090576171875,-0.9444580078125,0.22119140625,-0.38525390625,0.7890625,20.25,13.3125,41.5
0,52,308,622,249,242,88,49,45,0.1680908203125,-0.1478271484375,0.24005126953125,-0.94464111328125,0.20751953125,-0.39501953125,0.75634765625,8.9375,19.0,28.9375
0,52,288,564,243,244,119,53,46,0.17071533203125,-0.14312744140625,0.2410888671875,-0.944580078125,0.13818359375,-0.48486328125,0.7578125,2.8125,20.875,20.0
0,55,345,555,238,234,115,51,46,0.173828125,-0.138427734375,0.23876953125,-0.9453125,0.05712890625,-0.47314453125,0.8251953125,20.0625,12.4375,16.625
0,54,360,496,193,221,111,50,41,0.17840576171875,-0.13421630859375,0.23345947265625,-0.9464111328125,0.0361328125,-0.4755859375,0.73681640625,40.9375,5.6875,21.0625
0,52,359,456,201,214,108,46,42,0.18194580078125,-0.12994384765625,0.226806640625,-0.94793701171875,-0.0078125,-0.392578125,0.77392578125,43.1875,3.25,13.0625
0,51,387,438,297,341,137,53,42,0.18408203125,-0.1265869140625,0.221435546875,-0.94927978515625,-0.08056640625,-0.3876953125,0.8798828125,30.75,-3.9375,3.625
0,51,429,445,299,317,105,42,33,0.186279296875,-0.12493896484375,0.21759033203125,-0.949951171875,-0.03125,-0.45703125,0.8310546875,26.1875,-8.5,4.375
0,54,392,414,293,321,107,42,37,0.18865966796875,-0.123291015625,0.2147216796875,-0.9503173828125,-0.0322265625,-0.44091796875,0.8955078125,18.125,-8.3125,6.625
0,52,451,443,291,324,108,40,35,0.1900634765625,-0.1204833984375,0.212646484375,-0.95086669921875,-0.03955078125,-0.41015625,0.92578125,12.0625,-0.375,3.4375
0,53,456,571,283,338,116,44,36,0.1907958984375,-0.11761474609375,0.21160888671875,-0.95135498046875,-0.05810546875,-0.3701171875,0.951171875,2.8125,0.8125,0.875
0,51,469,556,171,204,74,35,33,0.1912841796875,-0.11529541015625,0.21087646484375,-0.95166015625,0.01171875,-0.337890625,0.9365234375,-1.1875,2.875,1.75
0,46,432,546,158,196,72,33,32,0.1915283203125,-0.1129150390625,0.211181640625,-0.95184326171875,0.0546875,-0.3173828125,0.87451171875,-6.5625,8.125,2.8125
0,44,417,546,155,170,77,35,33,0.19189453125,-0.11041259765625,0.212646484375,-0.95172119140625,0.0244140625,-0.33642578125,0.8720703125,-11.75,8.4375,3.75
0,44,326,513,157,174,78,34,32,0.19329833984375,-0.10858154296875,0.21435546875,-0.9512939453125,0.029296875,-0.3779296875,0.8720703125,-11.0625,4.125,9.125
0,47,299,423,121,139,69,33,34,0.19537353515625,-0.1075439453125,0.2132568359375,-0.95123291015625,0.109375,-0.357421875,0.8046875,5.125,1.625,12.25
0,46,251,390,118,141,70,32,34,0.19781494140625,-0.10687255859375,0.21185302734375,-0.95111083984375,0.11767578125,-0.287109375,0.80712890625,2.375,-0.375,14.8125
0,48,252,369,114,142,77,36,36,0.19976806640625,-0.10662841796875,0.2137451171875,-0.9503173828125,0.10498046875,-0.353515625,0.77734375,-12.1875,0.625,13.4375
0,56,268,426,136,148,74,36,34,0.20196533203125,-0.10693359375,0.21624755859375,-0.94921875,0.1044921875,-0.41259765625,0.82861328125,-14.8125,-2.125,14.1875
0,58,257,415,138,148,71,39,37,0.2044677734375,-0.107666015625,0.2174072265625,-0.9483642578125,0.1552734375,-0.43212890625,0.81640625,-6.1875,-3.4375,15.8125
0,53,248,363,133,122,78,36,33,0.2071533203125,-0.10821533203125,0.2176513671875,-0.9476318359375,0.16259765625,-0.38525390625,0.841796875,-4.5625,-3.1875,17.125
0,52,214,378,126,135,85,39,33,0.20916748046875,-0.1087646484375,0.21820068359375,-0.947021484375,0.162109375,-0.32861328125,0.85205078125,-10.25,-2.1875,13.8125
0,55,228,404,123,127,79,36,35,0.2098388671875,-0.11004638671875,0.2198486328125,-0.94635009765625,0.197265625,-0.3212890625,0.8564453125,-19.1875,-0.8125,7.6875
0,43,223,353,89,116,73,34,35,0.20989990234375,-0.111083984375,0.223388671875,-0.94537353515625,0.19189453125,-0.38037109375,0.86474609375,-26.5625,2.4375,5.5625
0,44,384,379,109,181,93,36,34,0.2098388671875,-0.11181640625,0.2264404296875,-0.944580078125,0.1513671875,-0.400390625,0.86474609375,-23.0625,1.5625,3.5
0,46,386,364,107,193,84,35,33,0.210205078125,-0.11248779296875,0.2274169921875,-0.9442138671875,0.1474609375,-0.3994140625,0.85302734375,-10.4375,-1.1875,3.6875
0,49,386,378,127,196,80,34,36,0.21063232421875,-0.11358642578125,0.22723388671875,-0.94403076171875,0.1611328125,-0.3818359375,0.81689453125,-4.25,-3.75,3.3125
0,43,379,349,127,205,82,35,36,0.21099853515625,-0.114990234375,0.22601318359375,-0.94403076171875,0.1494140625,-0.3505859375,0.845703125,-1.75,-7.875,1.125
0,47,432,341,134,216,84,34,34,0.21124267578125,-0.11712646484375,0.2259521484375,-0.9437255859375,0.169921875,-0.40087890625,0.83349609375,-6.1875,-8.875,1.0625
0,47,302,381,141,179,86,35,40,0.2117919921875,-0.119384765625,0.225830078125,-0.943359375,0.1640625,-0.3994140625,0.84423828125,-5.8125,-11.0,2.375
0,45,298,363,155,169,86,36,41,0.2127685546875,-0.12164306640625,0.2257080078125,-0.94287109375,0.17333984375,-0.36279296875,0.82666015625,-8.0,-11.25,5.125
0,44,291,371,161,163,83,34,39,0.21337890625,-0.124267578125,0.22821044921875,-0.94183349609375,0.16015625,-0.396484375,0.85302734375,-22.4375,-10.875,4.4375
0,44,265,433,168,158,80,33,36,0.21405029296875,-0.1265869140625,0.23126220703125,-0.94061279296875,0.1337890625,-0.4287109375,0.85986328125,-24.25,-11.1875,4.8125
0,41,175,474,163,172,87,34,36,0.215087890625,-0.1292724609375,0.23382568359375,-0.9393310546875,0.16064453125,-0.44140625,0.85986328125,-21.375,-12.1875,6.4375
0,33,168,404,133,160,62,29,28,0.21575927734375,-0.13165283203125,0.23590087890625,-0.9383544921875,0.15673828125,-0.4091796875,0.8740234375,-21.0625,-11.8125,4.5
0,34,179,481,119,162,54,26,27,0.21588134765625,-0.13427734375,0.2388916015625,-0.93719482421875,0.1591796875,-0.42919921875,0.83544921875,-25.125,-10.375,1.875
0,33,171,448,93,158,66,28,24,0.215576171875,-0.13702392578125,0.24163818359375,-0.9361572265625,0.1689453125,-0.4453125,0.85009765625,-23.875,-10.875,-0.6875
0,31,166,387,81,169,114,29,21,0.21478271484375,-0.13970947265625,0.2449951171875,-0.93505859375,0.1767578125,-0.4697265625,0.84521484375,-26.5,-9.0625,-2.6875
0,30,153,392,80,142,108,25,22,0.21331787109375,-0.142333984375,0.24957275390625,-0.933837890625,0.2138671875,-0.54443359375,0.87109375,-31.0,-4.375,-4.5625
0,32,178,407,83,135,115,27,27,0.21240234375,-0.14410400390625,0.25616455078125,-0.93194580078125,0.21533203125,-0.6376953125,0.9228515625,-38.875,0.4375,1.1875
0,30,165,327,72,125,117,28,27,0.21343994140625,-0.1444091796875,0.2633056640625,-0.9296875,0.19140625,-0.736328125,0.9052734375,-33.8125,4.8125,12.9375
0,29,166,448,68,114,110,25,28,0.21551513671875,-0.14361572265625,0.26947021484375,-0.92755126953125,0.11572265625,-0.623046875,0.8837890625,-32.5625,3.9375,18.0625
0,30,168,452,71,96,63,27,30,0.21600341796875,-0.14337158203125,0.27557373046875,-0.9256591796875,0.0791015625,-0.51025390625,0.8193359375,-38.5625,2.5,8.1875
0,29,139,441,67,96,85,29,29,0.2135009765625,-0.14520263671875,0.2840576171875,-0.92340087890625,0.1279296875,-0.51220703125,0.74365234375,-55.125,2.3125,-6.3125
0,30,91,430,72,110,114,30,26,0.2098388671875,-0.14813232421875,0.293212890625,-0.9208984375,0.138671875,-0.52490234375,0.7275390625,-61.125,-0.375,-13.4375
0,37,118,436,79,127,121,32,24,0.20648193359375,-0.15118408203125,0.30206298828125,-0.9183349609375,0.13330078125,-0.59033203125,0.7060546875,-56.1875,-2.4375,-12.5625
0,38,154,318,73,131,127,34,25,0.20477294921875,-0.153564453125,0.30877685546875,-0.91607666015625,0.10009765625,-0.64404296875,0.7333984375,-41.5,-6.1875,-7.1875
0,37,170,335,94,160,136,37,25,0.2044677734375,-0.155029296875,0.312744140625,-0.91455078125,0.0498046875,-0.6806640625,0.724609375,-21.75,-9.0625,-4.3125
0,40,173,271,102,166,244,95,34,0.2042236328125,-0.1556396484375,0.3143310546875,-0.9139404296875,0.0068359375,-0.681640625,0.75048828125,-8.0625,-9.4375,-7.1875
0,37,170,276,101,182,241,99,33,0.20416259765625,-0.15570068359375,0.31756591796875,-0.912841796875,-0.0361328125,-0.72314453125,0.7177734375,-13.375,-7.1875,-5.875
0,31,166,291,104,175,248,102,35,0.20477294921875,-0.1552734375,0.3232421875,-0.9107666015625,-0.109375,-0.80078125,0.7666015625,-25.5625,-7.9375,-2.1875
0,30,132,280,104,189,248,103,35,0.206787109375,-0.154296875,0.33233642578125,-0.90716552734375,-0.16650390625,-0.89697265625,0.75,-40.4375,-7.5625,7.875
0,29,102,254,82,186,250,103,35,0.2095947265625,-0.1534423828125,0.3431396484375,-0.90264892578125,-0.19091796875,-0.9150390625,0.7119140625,-49.1875,-8.5625,13.625
0,26,93,258,72,181,157,59,26,0.212646484375,-0.1531982421875,0.354248046875,-0.897705078125,-0.1953125,-0.8681640625,0.6650390625,-54.1875,-11.4375,14.6875
0,27,90,252,65,167,155,52,26,0.2149658203125,-0.15423583984375,0.36627197265625,-0.89208984375,-0.1826171875,-0.78564453125,0.6142578125,-65.625,-14.5,11.5625
0,28,48,213,82,188,201,58,27,0.21710205078125,-0.1563720703125,0.37890625,-0.88592529296875,-0.154296875,-0.74755859375,0.5849609375,-73.875,-17.25,11.4375
0,27,85,251,85,180,212,60,25,0.2200927734375,-0.1590576171875,0.3917236328125,-0.87908935546875,-0.123046875,-0.7509765625,0.5517578125,-76.125,-20.1875,17.4375
0,29,103,251,92,203,218,71,23,0.22552490234375,-0.161865234375,0.40252685546875,-0.872314453125,-0.10693359375,-0.79931640625,0.55908203125,-63.5,-27.625,27.9375
0,31,134,238,104,251,273,99,29,0.23370361328125,-0.163818359375,0.409423828125,-0.8665771484375,-0.09765625,-0.85791015625,0.5791015625,-37.8125,-33.125,39.0625
0,36,139,279,110,247,280,123,32,0.244384765625,-0.16522216796875,0.412353515625,-0.8619384765625,-0.12451171875,-0.869140625,0.5830078125,-12.8125,-41.25,46.9375
0,35,138,279,90,232,251,121,30,0.25628662109375,-0.16693115234375,0.4130859375,-0.8577880859375,-0.134765625,-0.8955078125,0.55615234375,2.8125,-48.1875,48.9375
0,35,117,270,87,231,241,121,34,0.2694091796875,-0.1693115234375,0.4124755859375,-0.85357666015625,-0.1240234375,-0.90283203125,0.544921875,9.8125,-55.25,53.375
0,34,108,304,95,207,250,116,35,0.2838134765625,-0.1722412109375,0.41204833984375,-0.84857177734375,-0.11279296875,-0.9052734375,0.53662109375,8.0625,-60.875,60.75
0,32,69,296,113,208,206,102,34,0.2991943359375,-0.17608642578125,0.4127197265625,-0.8421630859375,-0.1259765625,-0.951171875,0.50830078125,1.9375,-67.3125,66.3125
0,29,67,295,114,238,267,113,31,0.3154296875,-0.18072509765625,0.4124755859375,-0.8353271484375,-0.13525390625,-0.9951171875,0.4912109375,7.5625,-75.1875,68.5625
0,32,78,297,119,257,321,147,41,0.3326416015625,-0.186279296875,0.410400390625,-0.828369140625,-0.1162109375,-0.986328125,0.4599609375,16.6875,-83.9375,70.875
0,36,89,289,132,261,354,194,43,0.35113525390625,-0.19195556640625,0.40704345703125,-0.82110595703125,-0.1181640625,-1.009765625,0.451171875,24.75,-90.1875,76.0
0,35,92,254,122,249,344,195,42,0.37139892578125,-0.19842529296875,0.3997802734375,-0.81414794921875,-0.1474609375,-1.08203125,0.419921875,32.6875,-101.75,83.8125
0,36,108,252,99,226,350,200,41,0.3939208984375,-0.20513916015625,0.389892578125,-0.80670166015625,-0.14013671875,-1.12109375,0.43603515625,46.3125,-114.0625,92.0
0,33,107,195,91,198,307,183,41,0.41790771484375,-0.211669921875,0.37799072265625,-0.79852294921875,-0.103515625,-1.13427734375,0.455078125,56.3125,-121.25,99.25
0,32,110,194,98,213,319,168,39,0.4429931640625,-0.21807861328125,0.36590576171875,-0.78887939453125,-0.0703125,-1.0224609375,0.46533203125,54.4375,-125.125,108.0625
0,31,103,169,108,241,311,120,40,0.46728515625,-0.22467041015625,0.35528564453125,-0.77777099609375,-0.05078125,-0.92431640625,0.49609375,42.125,-122.4375,110.0
0,32,98,168,110,244,308,121,40,0.49053955078125,-0.23211669921875,0.3463134765625,-0.7652587890625,-0.0263671875,-0.93017578125,0.46728515625,29.0,-121.1875,110.0
0,32,82,172,110,227,289,115,39,0.51373291015625,-0.23944091796875,0.3355712890625,-0.75244140625,0.00927734375,-0.94580078125,0.451171875,36.8125,-125.5,109.0625
0,33,81,174,110,239,299,115,38,0.5374755859375,-0.245361328125,0.32147216796875,-0.73992919921875,0.0654296875,-0.92041015625,0.4296875,57.0,-129.125,109.0
0,31,65,159,103,230,268,107,32,0.561767578125,-0.25030517578125,0.30517578125,-0.72705078125,0.11572265625,-0.85400390625,0.41796875,69.0625,-132.75,112.0
0,28,62,175,86,228,248,135,26,0.5859375,-0.2547607421875,0.2886962890625,-0.7130126953125,0.146484375,-0.8349609375,0.40966796875,69.5,-132.375,115.9375
0,29,73,183,83,225,245,142,27,0.609619140625,-0.25927734375,0.27288818359375,-0.6976318359375,0.1689453125,-0.84375,0.4150390625,63.9375,-131.125,119.6875
0,29,85,187,93,284,252,138,28,0.65478515625,-0.2679443359375,0.24310302734375,-0.66363525390625,0.1689453125,-0.90283203125,0.4619140625,58.0,-126.6875,122.1875
0,29,82,194,101,273,219,133,29,0.67669677734375,-0.27166748046875,0.22833251953125,-0.64508056640625,0.201171875,-0.89892578125,0.4580078125,56.125,-126.5625,126.875
0,31,81,186,105,254,150,126,29,0.69854736328125,-0.2744140625,0.2135009765625,-0.6253662109375,0.22021484375,-0.84326171875,0.49169921875,57.875,-124.1875,132.375
0,31,96,176,95,223,133,78,28,0.71990966796875,-0.2763671875,0.1988525390625,-0.60479736328125,0.24365234375,-0.73876953125,0.5400390625,56.6875,-121.25,135.75
0,31,91,169,92,237,143,56,28,0.74029541015625,-0.2781982421875,0.1859130859375,-0.5831298828125,0.2431640625,-0.70263671875,0.59716796875,47.75,-114.5625,139.5625
0,29,91,229,98,233,135,47,30,0.75958251953125,-0.2799072265625,0.17413330078125,-0.56072998046875,0.22509765625,-0.64794921875,0.63818359375,40.625,-109.4375,140.9375
0,33,105,239,96,230,138,47,30,0.77789306640625,-0.28057861328125,0.1632080078125,-0.5380859375,0.2099609375,-0.6015625,0.66064453125,40.0625,-102.125,140.9375
0,31,107,237,85,230,130,40,31,0.79425048828125,-0.28216552734375,0.1533203125,-0.51580810546875,0.18017578125,-0.54296875,0.67626953125,29.125,-98.3125,133.875
0,31,98,238,85,228,118,40,30,0.80877685546875,-0.2843017578125,0.144287109375,-0.494140625,0.17138671875,-0.57470703125,0.68505859375,22.0625,-93.375,126.25
0,31,91,238,91,219,111,52,32,0.822265625,-0.28643798828125,0.13580322265625,-0.47265625,0.17529296875,-0.60302734375,0.673828125,19.75,-89.875,123.6875
0,31,98,348,65,132,80,62,28,0.83514404296875,-0.28839111328125,0.127197265625,-0.45068359375,0.16162109375,-0.61328125,0.6533203125,19.75,-90.125,124.0
0,28,90,351,60,126,84,90,28,0.84771728515625,-0.2894287109375,0.11834716796875,-0.428466796875,0.15283203125,-0.65771484375,0.60791015625,25.3125,-89.25,124.5625
0,28,88,361,73,170,124,92,26,0.85986328125,-0.2904052734375,0.10858154296875,-0.4056396484375,0.1513671875,-0.6416015625,0.6044921875,26.625,-94.125,124.6875
0,30,85,358,72,188,149,98,28,0.87103271484375,-0.29132080078125,0.09857177734375,-0.3829345703125,0.15771484375,-0.61376953125,0.5908203125,25.8125,-94.8125,121.625
0,34,120,395,75,187,194,105,30,0.880859375,-0.29315185546875,0.08856201171875,-0.3609619140625,0.19482421875,-0.6015625,0.59375,19.0625,-93.9375,115.0
0,38,126,303,79,198,200,99,30,0.8890380859375,-0.29644775390625,0.0794677734375,-0.33966064453125,0.220703125,-0.6298828125,0.5703125,8.25,-90.1875,109.1875
0,37,126,295,76,193,206,79,29,0.89599609375,-0.3004150390625,0.0703125,-0.31939697265625,0.23193359375,-0.650390625,0.60986328125,2.8125,-89.375,100.875
0,38,145,308,72,175,219,96,32,0.9014892578125,-0.30596923828125,0.059814453125,-0.30010986328125,0.26904296875,-0.64208984375,0.64697265625,1.875,-87.5625,96.625
0,36,147,327,74,167,209,93,30,0.906494140625,-0.31060791015625,0.04937744140625,-0.28167724609375,0.29931640625,-0.6259765625,0.671875,3.4375,-83.0625,92.625
0,36,136,273,63,160,167,85,29,0.91058349609375,-0.3150634765625,0.0391845703125,-0.26458740234375,0.32373046875,-0.5869140625,0.68603515625,-0.5,-78.0,85.6875
0,31,118,234,64,139,162,92,28,0.91357421875,-0.31982421875,0.02960205078125,-0.249267578125,0.3564453125,-0.58203125,0.70947265625,-6.0625,-70.875,76.8125
0,30,124,240,61,146,162,103,29,0.9156494140625,-0.3250732421875,0.02093505859375,-0.235595703125,0.36181640625,-0.57568359375,0.71044921875,-12.25,-64.0,68.4375
0,31,104,208,50,124,179,103,31,0.9169921875,-0.33026123046875,0.01275634765625,-0.2232666015625,0.36474609375,-0.60205078125,0.716796875,-13.1875,-59.125,61.4375
0,31,103,198,49,113,177,106,30,0.9180908203125,-0.33489990234375,0.0047607421875,-0.2117919921875,0.37353515625,-0.6044921875,0.7119140625,-11.4375,-56.0625,56.6875
0,28,81,193,57,114,180,103,29,0.9189453125,-0.339111328125,-0.00274658203125,-0.20123291015625,0.35400390625,-0.5986328125,0.70751953125,-10.4375,-52.8125,51.375
0,28,86,193,55,134,182,98,29,0.91961669921875,-0.34259033203125,-0.00982666015625,-0.1920166015625,0.33203125,-0.580078125,0.72119140625,-9.4375,-48.9375,44.0
0,29,72,178,57,132,178,102,28,0.91961669921875,-0.3463134765625,-0.01654052734375,-0.18463134765625,0.33984375,-0.59619140625,0.7001953125,-11.25,-43.6875,34.5625
0,30,71,177,60,153,121,91,23,0.9188232421875,-0.35125732421875,-0.0224609375,-0.178466796875,0.341796875,-0.693359375,0.73291015625,-17.125,-38.9375,27.5625
0,30,73,167,72,170,131,93,25,0.91778564453125,-0.356689453125,-0.0272216796875,-0.17218017578125,0.314453125,-0.80908203125,0.7470703125,-16.8125,-36.0625,27.4375
0,28,72,172,67,171,127,93,26,0.9169921875,-0.36181640625,-0.03118896484375,-0.164794921875,0.24462890625,-0.8681640625,0.72509765625,-11.6875,-37.375,31.375
0,29,61,160,63,157,123,105,29,0.91680908203125,-0.36541748046875,-0.0352783203125,-0.15692138671875,0.16455078125,-0.81591796875,0.703125,-4.5,-41.75,30.625
0,27,62,178,71,156,115,102,29,0.91607666015625,-0.36981201171875,-0.03887939453125,-0.150146484375,0.1328125,-0.78759765625,0.6591796875,-11.0,-39.0625,24.625
0,25,57,194,72,150,106,102,29,0.91455078125,-0.3756103515625,-0.04229736328125,-0.1439208984375,0.10302734375,-0.826171875,0.62744140625,-17.5625,-39.25,19.6875
0,30,56,200,59,131,83,94,29,0.913330078125,-0.38055419921875,-0.0457763671875,-0.1375732421875,0.0810546875,-0.8701171875,0.60595703125,-9.9375,-40.25,18.1875
0,29,59,201,56,123,95,91,28,0.91302490234375,-0.38323974609375,-0.05023193359375,-0.1304931640625,0.109375,-0.8583984375,0.58935546875,4.4375,-43.625,21.5625
0,29,59,190,66,143,95,76,27,0.9129638671875,-0.3851318359375,-0.05517578125,-0.12261962890625,0.12841796875,-0.822265625,0.576171875,8.1875,-46.1875,26.0
0,28,50,179,54,145,130,76,25,0.91278076171875,-0.3875732421875,-0.0599365234375,-0.1141357421875,0.1259765625,-0.7919921875,0.5615234375,4.0625,-47.125,29.6875
0,28,50,170,51,116,147,79,25,0.91168212890625,-0.39178466796875,-0.06414794921875,-0.1058349609375,0.1455078125,-0.79736328125,0.5302734375,-6.6875,-43.9375,30.9375
0,25,46,140,58,122,177,96,29,0.9095458984375,-0.398193359375,-0.0679931640625,-0.097412109375,0.16845703125,-0.83544921875,0.50634765625,-18.3125,-42.875,32.875
0,24,40,128,59,165,172,110,28,0.9072265625,-0.4049072265625,-0.072265625,-0.088134765625,0.16796875,-0.86181640625,0.48046875,-19.0,-46.9375,36.5625
0,26,44,192,52,167,187,111,29,0.9052734375,-0.41033935546875,-0.07696533203125,-0.07843017578125,0.1640625,-0.84228515625,0.46923828125,-11.75,-49.75,36.875
0,30,48,230,63,176,183,112,31,0.903564453125,-0.41473388671875,-0.08203125,-0.06939697265625,0.17041015625,-0.81689453125,0.458984375,-7.5625,-49.25,33.3125
0,31,50,228,61,192,181,112,32,0.90167236328125,-0.4190673828125,-0.0872802734375,-0.06097412109375,0.1640625,-0.79931640625,0.443359375,-8.4375,-48.875,29.375
0,29,56,254,57,198,154,100,28,0.89959716796875,-0.42352294921875,-0.092529296875,-0.05291748046875,0.15673828125,-0.8046875,0.45751953125,-11.125,-48.8125,27.0625
0,30,62,270,64,177,167,100,29,0.89739990234375,-0.42791748046875,-0.0975341796875,-0.04510498046875,0.1474609375,-0.83056640625,0.45654296875,-10.9375,-47.875,25.1875
0,28,63,257,64,178,173,105,29,0.89544677734375,-0.43157958984375,-0.102294921875,-0.037109375,0.13330078125,-0.83203125,0.4697265625,-7.6875,-47.375,25.625
0,25,63,221,53,167,151,90,28,0.89373779296875,-0.43475341796875,-0.1065673828125,-0.02923583984375,0.1484375,-0.82177734375,0.4814453125,-6.375,-44.3125,27.0625
0,25,61,217,55,148,149,88,27,0.891845703125,-0.43817138671875,-0.1102294921875,-0.02166748046875,0.17041015625,-0.8212890625,0.5126953125,-11.125,-40.125,28.25
0,24,57,202,61,125,148,87,28,0.8900146484375,-0.44146728515625,-0.11297607421875,-0.0140380859375,0.18603515625,-0.82470703125,0.53076171875,-11.5625,-35.0625,31.6875
0,23,54,187,55,114,128,67,28,0.88861083984375,-0.4439697265625,-0.11468505859375,-0.0062255859375,0.189453125,-0.81787109375,0.55517578125,-8.5625,-30.0,35.4375
0,27,60,194,54,74,91,65,28,0.88763427734375,-0.44586181640625,-0.11541748046875,0.00152587890625,0.201171875,-0.8046875,0.55322265625,-5.375,-24.0,38.625
0,29,59,213,53,67,87,71,28,0.8868408203125,-0.447265625,-0.115478515625,0.0093994140625,0.2216796875,-0.80224609375,0.55517578125,-2.5,-19.6875,42.0625
0,30,66,228,60,67,52,65,27,0.8863525390625,-0.4481201171875,-0.114990234375,0.01776123046875,0.2236328125,-0.78564453125,0.55615234375,0.125,-17.5,46.5
0,30,71,236,48,62,89,83,25,0.88623046875,-0.44818115234375,-0.11395263671875,0.02679443359375,0.22412109375,-0.77685546875,0.541015625,6.0625,-15.625,51.4375
0,33,106,263,48,44,127,103,25,0.88623046875,-0.44781494140625,-0.1124267578125,0.03662109375,0.24267578125,-0.75732421875,0.52978515625,9.1875,-14.1875,58.5
0,32,134,254,44,42,161,119,22,0.88641357421875,-0.44696044921875,-0.11016845703125,0.04766845703125,0.24951171875,-0.751953125,0.53564453125,12.5,-12.6875,67.25
0,39,223,357,47,46,219,118,26,0.88702392578125,-0.4453125,-0.10650634765625,0.05987548828125,0.25146484375,-0.75244140625,0.52783203125,19.5,-7.5,77.125
0,40,229,376,45,45,230,136,31,0.88812255859375,-0.44244384765625,-0.1002197265625,0.07373046875,0.24169921875,-0.7626953125,0.51025390625,30.75,2.3125,91.9375
0,45,231,389,45,41,244,146,31,0.88958740234375,-0.4385986328125,-0.09051513671875,0.08978271484375,0.22216796875,-0.716796875,0.50390625,36.8125,9.375,105.4375
0,57,221,380,43,42,235,153,54,0.89141845703125,-0.433349609375,-0.0792236328125,0.1063232421875,0.171875,-0.68408203125,0.54541015625,45.5625,15.5,110.8125
0,60,215,386,45,42,215,142,55,0.89288330078125,-0.427978515625,-0.0670166015625,0.12286376953125,0.11474609375,-0.6845703125,0.56591796875,45.625,19.9375,113.125
0,55,141,294,46,37,159,142,55,0.893310546875,-0.424072265625,-0.053466796875,0.1387939453125,0.091796875,-0.68359375,0.57373046875,36.5,28.875,114.25
0,54,128,319,47,39,147,123,54,0.8916015625,-0.42431640625,-0.03948974609375,0.15313720703125,0.05810546875,-0.6787109375,0.58154296875,9.8125,37.4375,110.1875
0,55,126,326,62,52,101,99,54,0.88800048828125,-0.427978515625,-0.02471923828125,0.1661376953125,0.0009765625,-0.73583984375,0.56640625,-11.0,47.0,107.625
0,40,127,337,68,52,82,67,33,0.88409423828125,-0.43170166015625,-0.00958251953125,0.17877197265625,-0.0205078125,-0.78173828125,0.4990234375,-10.5,50.125,107.0
0,38,108,324,66,52,111,60,32,0.8795166015625,-0.43536376953125,0.00592041015625,0.19189453125,-0.0634765625,-0.90185546875,0.53466796875,-10.75,50.75,111.6875
0,36,80,342,64,52,148,75,30,0.87548828125,-0.43658447265625,0.021484375,0.2059326171875,-0.1962890625,-0.87255859375,0.60986328125,1.8125,45.0625,114.9375
0,40,84,337,63,55,168,135,30,0.87213134765625,-0.435302734375,0.03741455078125,0.22003173828125,-0.2802734375,-0.88134765625,0.6455078125,16.1875,43.375,114.875
0,35,135,321,52,43,167,140,27,0.86859130859375,-0.43341064453125,0.05389404296875,0.23406982421875,-0.28125,-0.84326171875,0.65234375,19.1875,46.1875,116.6875
0,36,138,317,46,44,167,139,25,0.8642578125,-0.431884765625,0.07244873046875,0.2474365234375,-0.3095703125,-0.7861328125,0.6376953125,18.125,58.75,119.5625
0,36,144,312,46,42,149,139,23,0.85931396484375,-0.4306640625,0.0933837890625,0.259521484375,-0.3388671875,-0.7646484375,0.6611328125,18.625,75.0625,120.5625
0,37,150,280,47,46,108,139,25,0.85357666015625,-0.42889404296875,0.11639404296875,0.271728515625,-0.39404296875,-0.701171875,0.6611328125,21.8125,84.1875,126.9375
0,36,146,230,41,37,72,98,25,0.846923828125,-0.42730712890625,0.13983154296875,0.28375244140625,-0.47119140625,-0.5830078125,0.66064453125,18.5625,87.625,127.4375
0,35,99,242,39,38,103,107,27,0.839111328125,-0.4271240234375,0.1627197265625,0.29486083984375,-0.4970703125,-0.48828125,0.59765625,8.375,90.375,121.625
0,35,87,273,38,37,106,107,28,0.83026123046875,-0.4283447265625,0.18499755859375,0.30474853515625,-0.51123046875,-0.48583984375,0.4921875,0.875,93.1875,115.625
0,33,76,292,39,39,103,104,28,0.82037353515625,-0.42974853515625,0.206787109375,0.31536865234375,-0.5546875,-0.53955078125,0.4375,-3.5,89.875,119.9375
0,36,83,302,37,34,102,91,27,0.8106689453125,-0.4281005859375,0.2288818359375,0.3272705078125,-0.6650390625,-0.58642578125,0.44287109375,10.75,82.125,130.0625
0,36,86,302,40,32,100,72,25,0.8023681640625,-0.4210205078125,0.25189208984375,0.3397216796875,-0.7451171875,-0.55859375,0.4609375,40.375,72.8125,139.5
0,37,92,279,38,30,59,40,24,0.79437255859375,-0.41107177734375,0.27557373046875,0.35223388671875,-0.80615234375,-0.35205078125,0.427734375,54.1875,69.0,142.4375
0,37,91,228,42,34,46,34,24,0.783935546875,-0.40472412109375,0.2977294921875,0.3646240234375,-0.875,-0.15234375,0.392578125,27.75,73.125,135.4375
0,36,94,210,49,32,42,30,24,0.77020263671875,-0.40478515625,0.31695556640625,0.37738037109375,-0.89990234375,-0.11865234375,0.36962890625,-15.375,77.875,126.25
0,34,80,199,50,37,36,29,24,0.75408935546875,-0.40869140625,0.3338623046875,0.39093017578125,-0.953125,-0.208984375,0.380859375,-43.25,79.0,123.6875
0,30,83,183,48,38,32,26,23,0.7386474609375,-0.41015625,0.35107421875,0.40362548828125,-1.021484375,-0.27001953125,0.39404296875,-28.4375,75.8125,125.375
0,34,82,165,53,39,26,25,22,0.7254638671875,-0.40673828125,0.36968994140625,0.41424560546875,-1.029296875,-0.23779296875,0.36865234375,4.875,71.0,124.5625
0,33,85,178,56,37,28,25,21,0.71429443359375,-0.3995361328125,0.3890380859375,0.42266845703125,-1.04248046875,-0.11328125,0.3505859375,31.25,66.0,119.3125
0,35,86,272,65,42,28,26,22,0.70440673828125,-0.39166259765625,0.40679931640625,0.429931640625,-1.0654296875,0.04736328125,0.29833984375,35.1875,57.0,107.25
0,39,113,313,74,74,36,27,24,0.69219970703125,-0.3868408203125,0.42291259765625,0.43853759765625,-1.09423828125,0.1064453125,0.28076171875,5.5625,54.125,92.4375
0,39,111,351,78,78,37,29,25,0.67950439453125,-0.38720703125,0.43218994140625,0.4488525390625,-1.08154296875,0.16845703125,0.30126953125,-38.3125,40.1875,71.0625
0,39,112,366,79,80,45,29,28,0.66790771484375,-0.3927001953125,0.4327392578125,0.46087646484375,-1.048828125,0.1533203125,0.36669921875,-82.0625,18.9375,44.8125
0,39,126,371,88,95,153,74,29,0.65911865234375,-0.40264892578125,0.4249267578125,0.47198486328125,-0.9765625,0.03955078125,0.40185546875,-107.0625,-5.5625,20.4375
0,37,126,310,78,109,167,76,29,0.652587890625,-0.41461181640625,0.411376953125,0.48260498046875,-0.97314453125,-0.05712890625,0.4228515625,-123.4375,-26.0625,-4.1875
0,35,107,334,87,125,179,81,30,0.64935302734375,-0.4261474609375,0.3939208984375,0.49139404296875,-0.935546875,-0.1923828125,0.4482421875,-120.375,-44.6875,-26.375
0,38,111,390,102,179,215,82,32,0.65032958984375,-0.43572998046875,0.37457275390625,0.496826171875,-0.93017578125,-0.29736328125,0.42041015625,-98.6875,-55.3125,-45.1875
0,35,110,394,102,187,241,94,32,0.65386962890625,-0.4442138671875,0.354248046875,0.49957275390625,-0.9384765625,-0.41162109375,0.43212890625,-83.3125,-61.6875,-57.625
0,33,85,384,102,207,246,76,29,0.66070556640625,-0.4493408203125,0.33428955078125,0.49969482421875,-0.9306640625,-0.45703125,0.44091796875,-55.375,-71.0625,-68.5625
0,34,86,413,118,238,258,76,30,0.66998291015625,-0.45184326171875,0.3150634765625,0.49755859375,-0.88427734375,-0.4765625,0.45849609375,-33.0,-74.375,-77.9375
0,34,84,359,113,262,269,89,28,0.68084716796875,-0.4527587890625,0.29644775390625,0.4935302734375,-0.83447265625,-0.49755859375,0.45849609375,-17.3125,-74.875,-85.5625
0,32,85,318,105,238,256,96,26,0.6922607421875,-0.453857421875,0.2767333984375,0.48797607421875,-0.76904296875,-0.50146484375,0.4541015625,-17.125,-75.875,-97.25
0,31,85,314,105,238,249,88,23,0.7034912109375,-0.45477294921875,0.257568359375,0.4815673828125,-0.70947265625,-0.5498046875,0.47412109375,-16.75,-73.9375,-105.1875
0,33,90,318,102,252,211,82,24,0.71527099609375,-0.45477294921875,0.238037109375,0.47418212890625,-0.64599609375,-0.55810546875,0.5,-11.5625,-75.4375,-110.4375
0,32,85,267,101,255,202,80,24,0.72735595703125,-0.45428466796875,0.21881103515625,0.4654541015625,-0.5732421875,-0.5673828125,0.51416015625,-6.1875,-72.4375,-115.4375
0,28,82,266,121,263,190,76,29,0.7398681640625,-0.45361328125,0.19940185546875,0.45501708984375,-0.5537109375,-0.60986328125,0.54248046875,-2.625,-69.1875,-123.75
0,31,78,198,124,275,195,84,32,0.75262451171875,-0.45263671875,0.18035888671875,0.44287109375,-0.5498046875,-0.61767578125,0.55859375,2.125,-65.0,-131.125
0,30,71,172,122,270,200,118,36,0.765625,-0.4512939453125,0.16168212890625,0.428955078125,-0.529296875,-0.6201171875,0.55029296875,7.0625,-60.1875,-138.25
0,32,64,153,144,352,199,135,41,0.77874755859375,-0.44989013671875,0.14276123046875,0.4132080078125,-0.486328125,-0.64404296875,0.5498046875,8.6875,-57.1875,-147.25
0,32,62,144,152,371,202,149,40,0.79095458984375,-0.4490966796875,0.1239013671875,0.39654541015625,-0.43798828125,-0.6708984375,0.58984375,4.25,-51.6875,-149.75
0,31,52,135,140,345,208,167,37,0.802490234375,-0.4482421875,0.105224609375,0.37939453125,-0.47509765625,-0.7138671875,0.58349609375,4.0,-50.1875,-150.25
0,29,42,102,140,344,225,176,38,0.8135986328125,-0.4471435546875,0.08709716796875,0.36126708984375,-0.51953125,-0.7763671875,0.646484375,5.4375,-46.1875,-153.4375
0,33,47,213,147,353,232,169,37,0.82403564453125,-0.446044921875,0.0701904296875,0.34210205078125,-0.5478515625,-0.79296875,0.6767578125,6.5,-37.75,-154.375
0,33,46,227,130,280,256,169,34,0.83349609375,-0.44573974609375,0.0550537109375,0.32171630859375,-0.55224609375,-0.8896484375,0.6767578125,4.9375,-25.25,-154.625
0,35,56,297,115,225,259,176,35,0.8426513671875,-0.444580078125,0.04132080078125,0.3009033203125,-0.53857421875,-0.86279296875,0.6484375,10.8125,-19.1875,-152.5
0,35,60,344,115,241,263,155,36,0.852294921875,-0.4412841796875,0.02880859375,0.27923583984375,-0.482421875,-0.7880859375,0.626953125,24.625,-15.1875,-154.8125
0,35,63,347,140,292,283,152,35,0.86114501953125,-0.43841552734375,0.0162353515625,0.2567138671875,-0.4140625,-0.7451171875,0.61181640625,19.875,-12.0625,-157.5
0,34,64,292,152,294,267,155,33,0.8695068359375,-0.43487548828125,0.00238037109375,0.23419189453125,-0.41455078125,-0.701171875,0.6015625,19.625,-20.3125,-160.75
0,34,77,331,146,265,271,151,33,0.87786865234375,-0.4296875,-0.012939453125,0.2109375,-0.3310546875,-0.7197265625,0.599609375,26.375,-27.4375,-167.5625
0,34,73,293,143,296,300,137,33,0.88604736328125,-0.4228515625,-0.02923583984375,0.18768310546875,-0.25390625,-0.63916015625,0.6064453125,32.3125,-34.125,-170.125
0,34,69,238,135,305,299,138,31,0.89263916015625,-0.41693115234375,-0.047119140625,0.16461181640625,-0.21630859375,-0.63720703125,0.55322265625,22.5625,-42.0,-170.8125
0,36,67,234,112,250,269,125,34,0.89739990234375,-0.41241455078125,-0.065673828125,0.14208984375,-0.13671875,-0.71484375,0.57275390625,11.5,-45.75,-167.125
0,35,62,235,103,265,310,121,35,0.90045166015625,-0.4095458984375,-0.08331298828125,0.1204833984375,-0.0810546875,-0.7578125,0.60400390625,0.125,-42.3125,-158.0
0,31,45,175,104,271,286,118,34,0.90264892578125,-0.40631103515625,-0.10028076171875,0.100341796875,-0.0986328125,-0.8076171875,0.60986328125,1.4375,-43.875,-149.5625
0,30,39,164,111,241,244,126,35,0.904541015625,-0.401611328125,-0.1171875,0.08203125,-0.06982421875,-0.8671875,0.61767578125,10.3125,-48.9375,-141.0
0,33,46,192,162,288,238,133,35,0.906005859375,-0.3961181640625,-0.133544921875,0.06640625,-0.01806640625,-0.8603515625,0.56591796875,16.0,-52.4375,-126.0
0,31,49,204,156,289,232,145,31,0.90679931640625,-0.39056396484375,-0.1494140625,0.05291748046875,-0.02001953125,-0.77197265625,0.55078125,16.0,-55.6875,-113.9375
0,30,59,328,145,267,175,134,29,0.90740966796875,-0.3843994140625,-0.16473388671875,0.04071044921875,0.0361328125,-0.69091796875,0.50341796875,19.875,-55.75,-106.1875
0,31,62,354,146,254,192,130,31,0.9078369140625,-0.37750244140625,-0.18011474609375,0.02899169921875,0.1064453125,-0.6279296875,0.51025390625,23.0,-56.6875,-103.5
0,32,63,344,137,248,195,124,30,0.9073486328125,-0.372314453125,-0.19427490234375,0.01885986328125,0.15625,-0.59716796875,0.4755859375,17.0625,-57.625,-95.0
0,28,60,341,95,158,232,133,32,0.90606689453125,-0.367919921875,-0.20867919921875,0.01116943359375,0.21533203125,-0.58984375,0.46484375,14.6875,-62.6875,-80.75
0,28,65,366,91,138,233,116,31,0.90472412109375,-0.36309814453125,-0.22271728515625,0.00616455078125,0.2646484375,-0.55859375,0.45654296875,19.125,-65.4375,-64.8125
0,28,62,280,97,138,231,128,33,0.90301513671875,-0.35882568359375,-0.23614501953125,0.004150390625,0.2919921875,-0.54150390625,0.43994140625,19.6875,-68.0625,-46.25
0,32,60,296,98,132,209,133,30,0.90093994140625,-0.35479736328125,-0.2496337890625,0.00555419921875,0.34423828125,-0.521484375,0.45263671875,20.3125,-74.5625,-26.75
0,33,84,366,101,118,232,141,32,0.89825439453125,-0.3525390625,-0.26220703125,0.0111083984375,0.3603515625,-0.54833984375,0.44873046875,17.3125,-79.125,-1.6875
0,34,85,361,77,99,209,133,29,0.8951416015625,-0.35174560546875,-0.2730712890625,0.01959228515625,0.34521484375,-0.58984375,0.46044921875,14.125,-78.5,16.75
0,34,88,352,83,103,213,143,32,0.8922119140625,-0.350341796875,-0.28314208984375,0.03106689453125,0.36572265625,-0.568359375,0.4794921875,20.0625,-80.75,33.6875
0,36,86,340,78,111,218,135,33,0.88897705078125,-0.34906005859375,-0.2926025390625,0.04669189453125,0.376953125,-0.65576171875,0.498046875,28.0625,-86.75,54.125
0,35,103,309,84,116,245,128,36,0.885009765625,-0.34759521484375,-0.3023681640625,0.06671142578125,0.43115234375,-0.6884765625,0.498046875,35.4375,-96.375,77.5
0,35,88,217,87,122,234,120,37,0.88116455078125,-0.34393310546875,-0.3121337890625,0.088623046875,0.46630859375,-0.63232421875,0.5341796875,45.0625,-101.3125,86.8125
0,36,90,212,89,127,258,124,38,0.8760986328125,-0.34210205078125,-0.32135009765625,0.10986328125,0.54052734375,-0.60546875,0.498046875,32.6875,-94.1875,92.9375
0,36,81,165,83,121,259,120,40,0.869873046875,-0.34344482421875,-0.329833984375,0.128662109375,0.54150390625,-0.61474609375,0.51611328125,9.125,-86.8125,89.375
0,36,102,189,82,101,248,123,40,0.86279296875,-0.34759521484375,-0.337158203125,0.14532470703125,0.5654296875,-0.7197265625,0.47607421875,-5.25,-74.875,84.9375
0,35,85,155,70,102,267,161,40,0.8560791015625,-0.3515625,-0.34326171875,0.16033935546875,0.5966796875,-0.8251953125,0.45166015625,-1.6875,-62.75,77.8125
0,32,82,152,58,100,291,172,38,0.85113525390625,-0.35357666015625,-0.34747314453125,0.1727294921875,0.64013671875,-0.84130859375,0.3818359375,11.1875,-43.375,65.75
0,33,80,142,51,86,259,165,37,0.84759521484375,-0.3553466796875,-0.35015869140625,0.18060302734375,0.6630859375,-0.83203125,0.32861328125,9.4375,-21.5625,46.8125
0,32,82,141,52,81,245,162,34,0.844970703125,-0.358642578125,-0.3516845703125,0.1834716796875,0.66162109375,-0.8603515625,0.30224609375,-2.875,-1.5625,26.3125
0,29,58,93,49,84,266,180,31,0.84375,-0.36273193359375,-0.35162353515625,0.1812744140625,0.67138671875,-0.8828125,0.26806640625,-10.0,20.8125,5.3125
0,26,62,98,47,77,242,176,28,0.84429931640625,-0.3671875,-0.34893798828125,0.17486572265625,0.673828125,-0.865234375,0.26318359375,-14.5,46.625,-10.0625
0,27,61,100,42,68,211,161,27,0.84619140625,-0.37274169921875,-0.34320068359375,0.1649169921875,0.63720703125,-0.83642578125,0.28369140625,-23.125,70.8125,-20.9375
0,25,71,111,44,86,195,158,27,0.8494873046875,-0.37823486328125,-0.33489990234375,0.1519775390625,0.5947265625,-0.81201171875,0.30859375,-25.3125,90.25,-32.125
0,28,73,112,64,115,200,158,28,0.85455322265625,-0.382568359375,-0.32293701171875,0.13800048828125,0.58154296875,-0.81494140625,0.31640625,-23.5625,104.375,-37.375
0,27,69,106,62,113,184,154,30,0.85980224609375,-0.38665771484375,-0.30987548828125,0.12310791015625,0.5732421875,-0.78564453125,0.33642578125,-23.125,111.8125,-39.4375
0,27,62,97,60,115,167,139,29,0.86553955078125,-0.39031982421875,-0.2950439453125,0.10687255859375,0.5400390625,-0.73291015625,0.390625,-22.125,124.0,-43.375
0,27,68,116,63,117,147,140,28,0.87103271484375,-0.3944091796875,-0.279052734375,0.0889892578125,0.50244140625,-0.69677734375,0.4267578125,-27.5,132.6875,-47.875
0,27,53,119,66,113,154,142,30,0.87579345703125,-0.399169921875,-0.26226806640625,0.07012939453125,0.482421875,-0.744140625,0.43798828125,-33.0625,137.8125,-50.3125
0,25,48,126,54,90,148,136,27,0.880126953125,-0.4034423828125,-0.24462890625,0.05206298828125,0.47021484375,-0.79248046875,0.43115234375,-29.625,139.5625,-45.0
0,28,47,135,55,93,140,112,26,0.884033203125,-0.4068603515625,-0.22723388671875,0.035888671875,0.45361328125,-0.76611328125,0.43115234375,-23.8125,133.375,-37.25
0,27,46,132,55,86,132,103,27,0.8875732421875,-0.40948486328125,-0.2099609375,0.02056884765625,0.44140625,-0.73583984375,0.43505859375,-19.3125,130.25,-33.5625
0,25,39,119,56,84,135,106,30,0.89093017578125,-0.41143798828125,-0.19219970703125,0.004638671875,0.41064453125,-0.685546875,0.47314453125,-18.25,133.0,-36.25
0,26,43,125,51,68,127,104,27,0.89349365234375,-0.41375732421875,-0.17401123046875,-0.01177978515625,0.388671875,-0.6982421875,0.48046875,-22.25,135.9375,-37.3125
0,28,53,152,54,97,130,106,29,0.8951416015625,-0.416748046875,-0.15594482421875,-0.0269775390625,0.36767578125,-0.78369140625,0.486328125,-25.8125,131.375,-31.5625
0,27,55,161,53,97,123,101,28,0.8966064453125,-0.41845703125,-0.138916015625,-0.04083251953125,0.39013671875,-0.8310546875,0.49365234375,-17.875,122.875,-27.6875
0,29,55,165,55,100,109,89,30,0.8985595703125,-0.417724609375,-0.123291015625,-0.05389404296875,0.4384765625,-0.7666015625,0.51220703125,-4.125,115.625,-27.75
0,28,55,168,63,107,173,133,27,0.8995361328125,-0.41754150390625,-0.10906982421875,-0.06768798828125,0.4404296875,-0.68896484375,0.52783203125,-10.0625,109.5,-34.4375
0,27,57,159,66,111,185,136,29,0.898681640625,-0.419921875,-0.095947265625,-0.0828857421875,0.42431640625,-0.67529296875,0.5439453125,-28.3125,104.75,-43.1875
0,25,51,164,58,80,178,135,27,0.8968505859375,-0.4227294921875,-0.08380126953125,-0.0992431640625,0.42236328125,-0.7431640625,0.55029296875,-32.625,102.1875,-51.875
0,27,50,156,64,72,172,132,27,0.89532470703125,-0.424072265625,-0.072021484375,-0.11572265625,0.4130859375,-0.83056640625,0.56884765625,-23.5625,101.125,-54.375
0,25,49,156,62,70,170,123,26,0.89410400390625,-0.42401123046875,-0.05999755859375,-0.13116455078125,0.39794921875,-0.86767578125,0.58203125,-14.9375,101.0625,-49.25
0,27,48,147,50,52,93,66,26,0.8936767578125,-0.42218017578125,-0.04693603515625,-0.1444091796875,0.33544921875,-0.76220703125,0.595703125,-4.8125,101.625,-35.5625
0,28,49,161,45,41,61,58,26,0.89239501953125,-0.42156982421875,-0.03131103515625,-0.1578369140625,0.28955078125,-0.7421875,0.64990234375,-16.875,113.9375,-30.75
0,28,57,164,46,40,55,54,26,0.89019775390625,-0.42242431640625,-0.01165771484375,-0.170166015625,0.26708984375,-0.7763671875,0.62841796875,-29.3125,130.3125,-16.4375
0,30,63,172,39,38,49,51,26,0.8885498046875,-0.42254638671875,0.0111083984375,-0.17822265625,0.201171875,-0.798828125,0.59326171875,-25.8125,136.125,13.0625
0,30,64,172,40,31,45,52,27,0.88787841796875,-0.42083740234375,0.0374755859375,-0.18212890625,0.09912109375,-0.73974609375,0.58056640625,-19.375,145.8125,43.6875
0,31,66,196,43,32,40,57,26,0.88775634765625,-0.41705322265625,0.06640625,-0.18316650390625,-0.052734375,-0.63232421875,0.54443359375,-11.0,152.8125,64.0625
0,33,69,237,43,36,81,75,26,0.887939453125,-0.410888671875,0.09716796875,-0.18231201171875,-0.201171875,-0.5732421875,0.50341796875,-1.3125,158.6875,78.0
0,34,63,223,42,35,82,76,25,0.88824462890625,-0.40277099609375,0.12884521484375,-0.17913818359375,-0.32958984375,-0.59423828125,0.44091796875,7.875,159.0,91.9375
0,35,69,248,48,57,88,78,28,0.8895263671875,-0.39154052734375,0.1591796875,-0.17340087890625,-0.4912109375,-0.669921875,0.33984375,27.75,147.25,104.375
0,36,74,258,50,59,89,82,26,0.8912353515625,-0.37786865234375,0.18853759765625,-0.1651611328125,-0.66357421875,-0.7275390625,0.27734375,41.3125,137.125,116.0625
0,35,87,346,56,58,88,74,27,0.8934326171875,-0.36181640625,0.21588134765625,-0.15557861328125,-0.7919921875,-0.666015625,0.26025390625,54.8125,124.375,120.9375
0,35,96,405,59,89,102,65,28,0.895263671875,-0.34521484375,0.24078369140625,-0.14599609375,-0.85791015625,-0.54443359375,0.326171875,57.0,112.5,115.5
0,33,103,453,62,106,168,86,29,0.89508056640625,-0.33233642578125,0.264404296875,-0.13580322265625,-0.82470703125,-0.46044921875,0.296875,33.25,104.875,110.1875
0,36,139,561,68,98,182,87,29,0.8919677734375,-0.324951171875,0.2891845703125,-0.12310791015625,-0.771484375,-0.4287109375,0.3349609375,-5.5625,107.8125,115.4375
0,47,165,563,74,102,189,97,31,0.8873291015625,-0.32025146484375,0.31378173828125,-0.1077880859375,-0.84814453125,-0.51416015625,0.40771484375,-26.8125,102.75,123.75
0,48,164,528,69,104,215,122,37,0.8839111328125,-0.31256103515625,0.3353271484375,-0.092529296875,-0.96533203125,-0.56494140625,0.41064453125,-6.5,86.625,123.9375
0,47,160,472,72,82,200,117,34,0.8828125,-0.29925537109375,0.35302734375,-0.07977294921875,-1.04443359375,-0.53564453125,0.498046875,31.9375,70.625,116.125
0,49,162,447,74,65,156,104,34,0.88299560546875,-0.282470703125,0.3682861328125,-0.069580078125,-1.015625,-0.3076171875,0.544921875,55.5625,62.875,105.375
0,44,130,289,66,62,139,103,32,0.88104248046875,-0.26788330078125,0.3856201171875,-0.0567626953125,-0.89697265625,-0.181640625,0.49951171875,25.375,64.3125,98.3125
0,33,92,283,56,56,131,89,31,0.87640380859375,-0.2601318359375,0.4029541015625,-0.04302978515625,-0.8671875,-0.23193359375,0.49072265625,-12.0,69.875,92.9375
0,34,96,272,61,55,83,48,24,0.8704833984375,-0.25555419921875,0.4195556640625,-0.02886962890625,-0.89404296875,-0.36474609375,0.48681640625,-25.5,68.875,93.9375
0,33,90,262,56,52,74,44,27,0.86517333984375,-0.2496337890625,0.4346923828125,-0.01458740234375,-0.890625,-0.3759765625,0.4462890625,-15.9375,60.3125,98.4375
0,31,81,230,48,41,55,36,26,0.86065673828125,-0.24212646484375,0.44781494140625,-0.00042724609375,-0.890625,-0.2978515625,0.4345703125,-8.25,50.125,97.375
0,31,77,213,46,42,48,53,26,0.8560791015625,-0.2362060546875,0.45941162109375,0.01409912109375,-0.87939453125,-0.2734375,0.39892578125,-16.625,42.1875,94.0
0,29,77,218,47,41,42,54,26,0.85101318359375,-0.2327880859375,0.4697265625,0.02984619140625,-0.89501953125,-0.2607421875,0.4091796875,-33.25,37.375,92.3125
0,27,62,236,47,35,34,52,26,0.845703125,-0.23150634765625,0.47857666015625,0.04608154296875,-0.90087890625,-0.23095703125,0.39892578125,-45.625,31.125,86.6875
0,27,59,252,46,33,136,74,25,0.83984375,-0.23321533203125,0.486083984375,0.0626220703125,-0.90673828125,-0.27783203125,0.4013671875,-60.625,27.9375,82.5625
0,27,53,247,46,35,197,94,26,0.83404541015625,-0.23651123046875,0.4920654296875,0.07904052734375,-0.93212890625,-0.34033203125,0.41455078125,-66.75,22.8125,79.4375
0,28,54,251,44,49,273,116,31,0.8291015625,-0.2392578125,0.496337890625,0.09442138671875,-0.9296875,-0.3056640625,0.41162109375,-61.5625,13.9375,72.625
0,31,71,271,44,49,283,121,30,0.82525634765625,-0.241943359375,0.4984130859375,0.10906982421875,-0.89794921875,-0.25341796875,0.41650390625,-60.25,3.6875,64.1875
0,30,71,268,43,50,292,129,31,0.82147216796875,-0.247314453125,0.49896240234375,0.12237548828125,-0.87841796875,-0.259765625,0.3779296875,-69.125,-1.9375,49.25
0,33,73,287,52,51,320,134,31,0.8179931640625,-0.25604248046875,0.497314453125,0.1341552734375,-0.85595703125,-0.31005859375,0.3759765625,-80.25,-7.625,32.5625
0,33,78,287,60,59,307,133,29,0.8157958984375,-0.2669677734375,0.49249267578125,0.1431884765625,-0.85888671875,-0.427734375,0.390625,-80.9375,-19.25,14.4375
0,32,77,300,62,58,251,113,25,0.8150634765625,-0.2781982421875,0.4854736328125,0.15008544921875,-0.9296875,-0.5078125,0.43115234375,-74.625,-29.75,1.5
0,29,61,278,63,59,248,112,26,0.81634521484375,-0.28765869140625,0.47613525390625,0.15533447265625,-0.9052734375,-0.48974609375,0.44677734375,-62.0625,-44.4375,-8.5625
0,33,62,241,66,76,246,109,28,0.8189697265625,-0.2984619140625,0.4632568359375,0.159912109375,-0.90625,-0.44873046875,0.43408203125,-68.125,-64.125,-26.25
0,30,60,180,73,91,200,90,29,0.821533203125,-0.3134765625,0.44659423828125,0.16522216796875,-0.96044921875,-0.4658203125,0.4873046875,-94.9375,-79.0625,-43.0625
0,32,65,288,69,88,188,80,31,0.82391357421875,-0.330810546875,0.42755126953125,0.169921875,-0.95361328125,-0.529296875,0.53369140625,-107.375,-87.25,-58.0625
0,33,77,278,69,84,210,79,32,0.82745361328125,-0.3475341796875,0.40606689453125,0.171875,-0.87158203125,-0.53125,0.56005859375,-99.25,-92.375,-73.25
0,33,78,283,75,128,224,72,30,0.83184814453125,-0.36334228515625,0.38311767578125,0.1708984375,-0.83056640625,-0.587890625,0.5703125,-87.4375,-96.6875,-87.8125
0,29,74,302,79,131,216,63,28,0.836181640625,-0.37835693359375,0.35980224609375,0.16766357421875,-0.93603515625,-0.74609375,0.5947265625,-75.6875,-98.75,-96.625
0,31,80,314,68,132,187,63,28,0.84075927734375,-0.38934326171875,0.33880615234375,0.16351318359375,-1.07275390625,-0.748046875,0.5771484375,-52.0,-97.625,-96.625
0,31,74,228,94,175,221,115,27,0.845703125,-0.3974609375,0.3184814453125,0.1590576171875,-1.0224609375,-0.65380859375,0.5458984375,-38.1875,-99.5,-97.8125
0,34,63,225,138,252,251,133,33,0.85113525390625,-0.4063720703125,0.29522705078125,0.152587890625,-0.9033203125,-0.57177734375,0.4892578125,-40.5,-102.0625,-108.625
0,37,67,226,149,253,234,138,35,0.8553466796875,-0.4176025390625,0.26995849609375,0.14508056640625,-0.79931640625,-0.5546875,0.4453125,-54.375,-105.6875,-121.625
0,37,68,234,156,281,251,149,36,0.859619140625,-0.4285888671875,0.242919921875,0.1351318359375,-0.71728515625,-0.677734375,0.42578125,-49.8125,-108.625,-136.25
0,39,63,237,160,279,274,178,44,0.8648681640625,-0.436767578125,0.21490478515625,0.12237548828125,-0.63623046875,-0.73388671875,0.41943359375,-29.8125,-110.1875,-148.75
0,37,66,240,154,263,248,164,45,0.87103271484375,-0.44140625,0.1871337890625,0.106689453125,-0.57763671875,-0.73828125,0.408203125,-6.1875,-105.375,-159.125
0,35,63,231,136,223,211,151,41,0.87799072265625,-0.44244384765625,0.15960693359375,0.08880615234375,-0.51123046875,-0.7607421875,0.359375,17.4375,-101.5625,-166.3125
0,34,72,236,125,254,210,150,40,0.88458251953125,-0.44158935546875,0.1326904296875,0.0697021484375,-0.4296875,-0.7490234375,0.3447265625,27.5,-96.3125,-169.0
0,38,81,261,133,343,234,149,42,0.8909912109375,-0.4384765625,0.1068115234375,0.0489501953125,-0.3369140625,-0.80029296875,0.34619140625,41.25,-87.0625,-172.25
0,35,79,252,157,397,259,127,36,0.89666748046875,-0.4339599609375,0.08319091796875,0.026611328125,-0.28369140625,-0.87255859375,0.36962890625,48.3125,-71.375,-173.25
0,38,83,261,153,402,253,121,34,0.90179443359375,-0.4273681640625,0.06353759765625,0.0037841796875,-0.3251953125,-0.833984375,0.349609375,59.0,-50.3125,-166.625
0,36,93,342,141,401,248,124,34,0.90594482421875,-0.420166015625,0.04791259765625,-0.01995849609375,-0.3564453125,-0.89501953125,0.322265625,61.0,-28.0,-162.1875
0,38,86,341,136,371,247,136,36,0.90911865234375,-0.4124755859375,0.036376953125,-0.044677734375,-0.27978515625,-0.89990234375,0.30322265625,62.0,-3.625,-156.6875
0,33,76,298,115,262,212,129,32,0.91131591796875,-0.40460205078125,0.02947998046875,-0.07025146484375,-0.2041015625,-0.83447265625,0.27685546875,59.1875,23.375,-150.125
0,36,92,367,77,166,197,134,30,0.912841796875,-0.39544677734375,0.0255126953125,-0.09814453125,-0.17041015625,-0.71142578125,0.29248046875,62.3125,45.25,-155.375
0,34,92,358,67,148,192,121,29,0.9132080078125,-0.38592529296875,0.02423095703125,-0.12835693359375,-0.06689453125,-0.580078125,0.2822265625,59.4375,65.75,-160.9375
0,36,89,308,62,147,189,120,29,0.91143798828125,-0.378173828125,0.0262451171875,-0.15972900390625,0.04736328125,-0.54052734375,0.27392578125,43.0,86.1875,-160.1875
0,32,89,298,96,194,194,114,29,0.9075927734375,-0.37225341796875,0.03155517578125,-0.19140625,0.0654296875,-0.54248046875,0.2900390625,25.6875,102.6875,-156.75
0,33,92,297,98,198,227,124,31,0.90289306640625,-0.36566162109375,0.038818359375,-0.2225341796875,0.04248046875,-0.56689453125,0.32080078125,25.25,111.9375,-151.0
0,30,77,198,93,202,217,127,28,0.892333984375,-0.34759521484375,0.05975341796875,-0.28155517578125,-0.04541015625,-0.6416015625,0.41943359375,31.1875,131.9375,-129.9375
0,31,67,187,93,206,235,135,31,0.88677978515625,-0.33880615234375,0.07257080078125,-0.30584716796875,-0.0751953125,-0.6396484375,0.4482421875,24.875,128.25,-106.5
0,27,55,140,88,174,222,129,30,0.8818359375,-0.3294677734375,0.08514404296875,-0.326416015625,-0.046875,-0.65185546875,0.51806640625,27.1875,121.0625,-86.4375
0,29,52,138,50,117,245,128,28,0.87640380859375,-0.32073974609375,0.09869384765625,-0.3453369140625,-0.02880859375,-0.6083984375,0.6123046875,19.125,122.3125,-76.8125
0,30,46,132,49,127,214,148,30,0.86932373046875,-0.3140869140625,0.1142578125,-0.3641357421875,-0.060546875,-0.60693359375,0.68603515625,0.9375,128.8125,-77.0
0,27,43,131,52,142,209,131,29,0.861083984375,-0.3094482421875,0.1317138671875,-0.38128662109375,-0.08349609375,-0.6298828125,0.72119140625,-16.4375,131.5,-69.0625
0,26,43,116,61,148,209,124,27,0.851806640625,-0.306884765625,0.15081787109375,-0.3968505859375,-0.05810546875,-0.6806640625,0.7265625,-32.875,133.8125,-61.75
0,28,43,105,64,152,213,140,29,0.84100341796875,-0.3056640625,0.1715087890625,-0.412109375,-0.087890625,-0.7255859375,0.7724609375,-46.1875,139.25,-62.25
0,29,48,136,69,162,219,171,33,0.8294677734375,-0.30377197265625,0.19232177734375,-0.4273681640625,-0.1513671875,-0.72802734375,0.80078125,-45.4375,141.875,-63.625
0,27,48,140,74,155,261,168,33,0.8177490234375,-0.3006591796875,0.2115478515625,-0.44281005859375,-0.173828125,-0.76513671875,0.798828125,-35.3125,137.625,-66.1875
0,29,45,136,75,153,265,170,33,0.80633544921875,-0.29656982421875,0.22784423828125,-0.45819091796875,-0.14697265625,-0.83203125,0.83203125,-23.0,126.6875,-68.4375
0,33,55,146,85,152,248,179,36,0.79583740234375,-0.28985595703125,0.24090576171875,-0.47381591796875,-0.14013671875,-0.841796875,0.8779296875,-0.625,118.1875,-69.0
0,35,60,158,124,238,278,173,35,0.786376953125,-0.2799072265625,0.25048828125,-0.49041748046875,-0.16259765625,-0.8134765625,0.85302734375,26.375,111.0,-71.9375
0,33,53,123,132,281,277,156,31,0.7767333984375,-0.27020263671875,0.2578125,-0.507080078125,-0.1787109375,-0.7578125,0.87060546875,28.4375,99.75,-78.3125
0,34,54,118,135,295,279,135,29,0.7667236328125,-0.26202392578125,0.26385498046875,-0.5233154296875,-0.17529296875,-0.79638671875,0.9072265625,24.25,89.875,-81.125
0,32,59,133,145,330,276,137,29,0.75640869140625,-0.25457763671875,0.26910400390625,-0.53912353515625,-0.22314453125,-0.8291015625,0.91650390625,24.3125,81.875,-84.0625
0,30,53,135,151,361,292,165,29,0.7464599609375,-0.24810791015625,0.2730712890625,-0.5538330078125,-0.279296875,-0.79248046875,0.89697265625,21.75,68.125,-84.5625
0,26,45,117,123,321,281,168,28,0.73675537109375,-0.24334716796875,0.27545166015625,-0.5675048828125,-0.302734375,-0.73193359375,0.88330078125,16.1875,52.3125,-86.25
0,25,45,150,112,290,264,152,28,0.72674560546875,-0.24090576171875,0.27630615234375,-0.58087158203125,-0.30517578125,-0.7255859375,0.87158203125,10.25,37.8125,-92.125
0,26,45,151,117,298,225,148,29,0.71624755859375,-0.240966796875,0.27496337890625,-0.5943603515625,-0.26123046875,-0.7998046875,0.8359375,12.5625,22.1875,-99.5625
0,28,43,155,108,259,205,143,32,0.70697021484375,-0.241455078125,0.270751953125,-0.6070556640625,-0.2099609375,-0.74755859375,0.80419921875,20.125,7.4375,-95.4375
0,28,39,148,88,208,213,119,30,0.69903564453125,-0.2423095703125,0.2635498046875,-0.6190185546875,-0.1884765625,-0.69091796875,0.77197265625,29.25,-9.3125,-92.75
0,29,44,158,84,190,208,117,31,0.69171142578125,-0.244140625,0.2530517578125,-0.63079833984375,-0.1396484375,-0.62060546875,0.75341796875,35.375,-26.5,-95.5
0,30,49,176,86,185,224,115,31,0.68487548828125,-0.2481689453125,0.24127197265625,-0.6412353515625,-0.0693359375,-0.59765625,0.7001953125,32.0,-39.5625,-90.9375
0,29,56,192,73,171,220,113,31,0.6788330078125,-0.2540283203125,0.2298583984375,-0.64947509765625,-0.0263671875,-0.57568359375,0.666015625,22.625,-48.5,-80.6875
0,31,57,187,67,164,217,113,31,0.67388916015625,-0.2607421875,0.21807861328125,-0.656005859375,-0.0361328125,-0.587890625,0.6328125,22.4375,-59.0625,-73.375
0,30,57,199,63,160,181,94,30,0.6705322265625,-0.26824951171875,0.2049560546875,-0.66064453125,0.0009765625,-0.552734375,0.59765625,24.375,-71.0,-62.875
0,31,56,221,67,163,160,88,30,0.66864013671875,-0.27728271484375,0.19189453125,-0.6627197265625,0.06298828125,-0.5556640625,0.5625,19.75,-80.1875,-47.1875
0,30,56,246,60,146,112,82,30,0.6690673828125,-0.28692626953125,0.1785888671875,-0.66192626953125,0.08544921875,-0.5283203125,0.5498046875,18.0,-90.0625,-28.6875
0,29,55,264,64,124,93,80,30,0.6712646484375,-0.296875,0.1656494140625,-0.65863037109375,0.09130859375,-0.517578125,0.52294921875,16.5,-96.25,-12.5625
0,30,61,278,61,105,80,91,27,0.6748046875,-0.3076171875,0.15350341796875,-0.65301513671875,0.14501953125,-0.5029296875,0.51708984375,9.5,-99.6875,3.75
0,33,63,357,64,101,105,92,32,0.6790771484375,-0.3187255859375,0.14349365234375,-0.6455078125,0.1943359375,-0.515625,0.51171875,0.75,-94.5625,18.0
0,32,64,366,60,85,121,94,32,0.68426513671875,-0.328857421875,0.13653564453125,-0.6363525390625,0.2216796875,-0.5517578125,0.52880859375,-6.25,-82.4375,34.8125
0,33,74,388,65,82,137,105,31,0.6905517578125,-0.33819580078125,0.134033203125,-0.6251220703125,0.220703125,-0.57275390625,0.57373046875,-20.5,-68.0625,55.1875
0,34,81,385,57,63,207,131,34,0.6973876953125,-0.3465576171875,0.1365966796875,-0.6123046875,0.17578125,-0.60205078125,0.60888671875,-36.0625,-51.125,71.75
0,32,77,374,58,60,218,131,35,0.70477294921875,-0.35235595703125,0.14306640625,-0.598876953125,0.123046875,-0.6064453125,0.587890625,-39.375,-29.9375,84.6875
0,28,77,295,55,54,220,132,30,0.7120361328125,-0.353759765625,0.152099609375,-0.587158203125,0.1494140625,-0.6103515625,0.57470703125,-29.0,1.5,87.8125
0,29,83,293,56,54,207,123,29,0.7169189453125,-0.35284423828125,0.16552734375,-0.5780029296875,0.1904296875,-0.640625,0.51611328125,-33.5625,38.25,83.25
0,29,74,213,49,52,203,118,29,0.72021484375,-0.348876953125,0.18231201171875,-0.5712890625,0.17333984375,-0.68408203125,0.513671875,-31.625,68.75,78.125
0,30,73,199,44,64,184,118,35,0.72332763671875,-0.34033203125,0.20086669921875,-0.56622314453125,0.09765625,-0.68896484375,0.548828125,-19.125,92.4375,77.25
0,32,76,204,57,84,185,114,35,0.72760009765625,-0.326171875,0.219970703125,-0.56201171875,-0.0068359375,-0.72021484375,0.5302734375,2.125,111.375,84.3125
0,37,99,224,62,93,171,104,37,0.73150634765625,-0.30792236328125,0.240234375,-0.55889892578125,-0.04345703125,-0.77197265625,0.4873046875,17.25,132.25,86.0625
0,38,105,198,60,104,173,104,38,0.73297119140625,-0.286865234375,0.2603759765625,-0.55914306640625,-0.078125,-0.779296875,0.42578125,31.0625,150.0,68.0
0,38,110,205,60,111,169,100,38,0.73089599609375,-0.26513671875,0.28045654296875,-0.5628662109375,-0.17626953125,-0.72607421875,0.46142578125,32.125,162.0625,42.0625
0,35,167,192,65,123,110,61,30,0.72454833984375,-0.2459716796875,0.3026123046875,-0.5682373046875,-0.25,-0.7255859375,0.5146484375,10.3125,171.25,20.25
0,38,196,201,50,114,79,50,31,0.71502685546875,-0.2301025390625,0.32696533203125,-0.57342529296875,-0.28662109375,-0.84765625,0.49755859375,-14.0625,175.0,8.75
0,35,195,178,49,133,92,46,32,0.70526123046875,-0.2158203125,0.3486328125,-0.57830810546875,-0.2861328125,-0.91064453125,0.5390625,-12.6875,159.375,3.625
0,35,267,191,58,145,116,47,35,0.69635009765625,-0.2000732421875,0.3670654296875,-0.5833740234375,-0.24072265625,-0.9189453125,0.52880859375,5.6875,150.5625,5.5
0,35,297,202,59,148,280,108,45,0.6865234375,-0.1845703125,0.38250732421875,-0.59014892578125,-0.3701171875,-0.93115234375,0.623046875,15.875,141.25,-9.125
0,40,270,195,60,142,299,112,91,0.67474365234375,-0.17083740234375,0.396240234375,-0.5987548828125,-0.4482421875,-0.90673828125,0.60302734375,16.4375,134.0625,-29.75
0,39,259,175,61,143,309,118,111,0.662353515625,-0.15997314453125,0.40972900390625,-0.60650634765625,-0.40087890625,-0.88916015625,0.640625,2.8125,124.8125,-34.0
0,41,256,171,61,128,310,118,113,0.64892578125,-0.1510009765625,0.424072265625,-0.6134033203125,-0.38232421875,-0.87841796875,0.615234375,-10.4375,123.0625,-37.875
0,42,189,133,61,159,328,117,114,0.63372802734375,-0.14251708984375,0.436767578125,-0.622314453125,-0.39111328125,-0.86181640625,0.58349609375,-3.5,121.625,-54.1875
0,53,139,92,69,169,238,115,125,0.616943359375,-0.134033203125,0.44732666015625,-0.63348388671875,-0.40673828125,-0.86572265625,0.5458984375,9.0,119.4375,-70.4375
0,53,155,95,64,183,218,143,145,0.59954833984375,-0.12554931640625,0.4549560546875,-0.6463623046875,-0.4248046875,-0.8779296875,0.54150390625,23.5,111.75,-80.3125
0,50,141,82,67,215,231,149,140,0.5821533203125,-0.11663818359375,0.4600830078125,-0.66015625,-0.380859375,-0.90869140625,0.478515625,37.625,105.3125,-83.9375
0,52,135,72,68,223,248,161,158,0.5643310546875,-0.10809326171875,0.463623046875,-0.67449951171875,-0.359375,-0.88720703125,0.48046875,49.875,99.5625,-86.125
0,56,112,69,70,229,242,178,191,0.54595947265625,-0.09881591796875,0.46612548828125,-0.6890869140625,-0.3671875,-0.81884765625,0.47412109375,54.0625,99.9375,-89.875
0,53,99,56,65,236,264,191,185,0.52685546875,-0.089599609375,0.46868896484375,-0.703369140625,-0.4345703125,-0.78564453125,0.4619140625,47.375,102.1875,-94.9375
0,54,59,45,74,248,279,190,155,0.50665283203125,-0.0816650390625,0.47259521484375,-0.7164306640625,-0.5244140625,-0.81640625,0.43505859375,34.6875,102.75,-99.1875
0,55,46,43,75,230,263,190,150,0.4862060546875,-0.074462890625,0.476806640625,-0.728515625,-0.5625,-0.87158203125,0.396484375,29.4375,100.0,-100.0625
0,53,43,47,91,258,265,204,129,0.46533203125,-0.06695556640625,0.4791259765625,-0.7412109375,-0.56591796875,-0.88720703125,0.38525390625,40.0625,97.25,-103.4375
0,49,55,83,94,271,256,200,74,0.44390869140625,-0.059814453125,0.4796142578125,-0.7545166015625,-0.572265625,-0.85595703125,0.36962890625,48.0625,92.375,-109.3125
0,41,59,89,93,267,264,216,69,0.42291259765625,-0.0540771484375,0.47906494140625,-0.76727294921875,-0.54296875,-0.82861328125,0.375,47.1875,82.5,-110.375
0,44,57,90,111,302,261,217,60,0.4027099609375,-0.0506591796875,0.47857666015625,-0.77862548828125,-0.513671875,-0.837890625,0.37353515625,38.0625,69.9375,-110.0625
0,44,57,93,118,314,269,215,54,0.38323974609375,-0.04931640625,0.47747802734375,-0.78912353515625,-0.47802734375,-0.8408203125,0.41015625,33.1875,57.4375,-110.0625
0,44,57,94,146,379,304,226,54,0.36376953125,-0.04949951171875,0.47625732421875,-0.79901123046875,-0.42529296875,-0.82470703125,0.44775390625,28.1875,50.625,-112.6875
0,39,44,63,148,372,326,245,51,0.34381103515625,-0.05126953125,0.4757080078125,-0.8079833984375,-0.35595703125,-0.84814453125,0.48876953125,18.625,46.5,-116.5625
0,39,41,57,172,390,319,210,49,0.32330322265625,-0.0537109375,0.47589111328125,-0.816162109375,-0.25634765625,-0.84912109375,0.509765625,11.5625,46.6875,-118.0625
0,32,42,54,160,359,320,192,52,0.30206298828125,-0.056884765625,0.47711181640625,-0.8233642578125,-0.19921875,-0.86376953125,0.50146484375,2.25,47.4375,-120.9375
0,32,39,51,156,352,316,195,48,0.279541015625,-0.06048583984375,0.47967529296875,-0.82952880859375,-0.1376953125,-0.8955078125,0.49853515625,-7.5625,51.375,-125.375
0,33,38,44,122,285,294,159,46,0.2554931640625,-0.06414794921875,0.48187255859375,-0.835693359375,-0.09326171875,-0.96044921875,0.5009765625,-6.3125,54.5625,-132.625
0,35,34,44,124,294,289,124,43,0.23175048828125,-0.067626953125,0.4827880859375,-0.841796875,-0.0615234375,-0.94921875,0.49609375,-0.25,52.75,-131.125
0,35,34,42,89,272,305,111,44,0.20892333984375,-0.07196044921875,0.48187255859375,-0.847900390625,-0.0458984375,-0.9248046875,0.47900390625,8.125,43.8125,-129.9375
0,34,36,39,90,272,296,108,39,0.1871337890625,-0.0771484375,0.48016357421875,-0.853515625,-0.0029296875,-0.916015625,0.470703125,10.0,35.4375,-126.8125
0,30,40,40,107,289,312,108,41,0.16680908203125,-0.0828857421875,0.478759765625,-0.85797119140625,0.02587890625,-0.88525390625,0.490234375,4.875,28.6875,-120.1875
0,34,44,52,118,292,320,154,46,0.14813232421875,-0.08984375,0.477294921875,-0.86151123046875,0.041015625,-0.85546875,0.47900390625,2.0625,17.4375,-114.4375
0,32,45,49,106,258,308,148,40,0.1312255859375,-0.09814453125,0.4759521484375,-0.86407470703125,0.06298828125,-0.86572265625,0.46630859375,-1.0,5.6875,-108.875
0,36,47,56,120,270,273,172,45,0.1162109375,-0.10723876953125,0.47412109375,-0.86614990234375,0.08251953125,-0.9208984375,0.4482421875,1.4375,-4.125,-101.75
0,37,44,58,128,285,374,203,49,0.10345458984375,-0.1168212890625,0.470947265625,-0.8682861328125,0.09814453125,-0.927734375,0.453125,14.625,-13.625,-93.875
0,37,40,58,114,260,363,197,47,0.0924072265625,-0.1268310546875,0.46551513671875,-0.87103271484375,0.11279296875,-0.8896484375,0.4365234375,29.0625,-21.5,-89.3125
0,31,37,51,103,232,343,165,41,0.08270263671875,-0.13800048828125,0.458984375,-0.873779296875,0.15576171875,-0.85693359375,0.41650390625,35.3125,-30.4375,-85.25
0,31,40,68,110,229,332,162,44,0.0743408203125,-0.1492919921875,0.452880859375,-0.8758544921875,0.1865234375,-0.8701171875,0.416015625,33.375,-34.5,-78.4375
0,27,54,81,93,241,318,131,37,0.06756591796875,-0.16009521484375,0.446044921875,-0.87799072265625,0.1708984375,-0.87109375,0.4111328125,39.875,-37.4375,-72.625
0,25,75,103,79,215,181,77,29,0.06317138671875,-0.170654296875,0.438232421875,-0.8802490234375,0.2197265625,-0.8466796875,0.44140625,45.75,-41.875,-59.3125
0,28,77,108,77,210,166,73,29,0.061279296875,-0.1802978515625,0.42999267578125,-0.882568359375,0.21044921875,-0.798828125,0.4072265625,51.25,-44.1875,-45.875
0,30,77,137,77,205,146,74,30,0.06201171875,-0.19000244140625,0.42108154296875,-0.884765625,0.23291015625,-0.7265625,0.416015625,54.5,-50.5625,-32.25
0,29,82,168,74,196,132,65,27,0.06536865234375,-0.1995849609375,0.4134521484375,-0.885986328125,0.26611328125,-0.72314453125,0.41748046875,48.8125,-56.0,-15.625
0,28,85,194,74,139,112,62,24,0.07177734375,-0.2086181640625,0.406005859375,-0.8868408203125,0.302734375,-0.7041015625,0.4248046875,50.5,-59.9375,2.875
0,33,74,203,74,117,115,62,27,0.080810546875,-0.216552734375,0.3994140625,-0.88720703125,0.337890625,-0.68896484375,0.41357421875,48.3125,-58.875,21.75
0,31,86,212,76,148,124,65,27,0.0906982421875,-0.22265625,0.39532470703125,-0.88653564453125,0.34033203125,-0.67724609375,0.42041015625,34.9375,-52.0625,34.0
0,32,90,214,67,124,137,54,26,0.10040283203125,-0.2276611328125,0.394287109375,-0.88470458984375,0.310546875,-0.69287109375,0.4111328125,17.4375,-46.75,38.1875
0,32,85,190,61,146,135,55,28,0.11029052734375,-0.23187255859375,0.39569091796875,-0.88177490234375,0.29541015625,-0.75341796875,0.41943359375,5.5625,-44.25,42.5625
0,30,81,215,61,149,138,55,28,0.12139892578125,-0.235595703125,0.397705078125,-0.87841796875,0.30029296875,-0.828125,0.42724609375,5.0625,-44.375,50.125
0,27,86,215,57,151,130,49,26,0.13458251953125,-0.2384033203125,0.39849853515625,-0.8753662109375,0.29833984375,-0.84765625,0.4296875,15.625,-45.375,60.6875
0,26,81,229,51,114,118,43,27,0.14935302734375,-0.24053955078125,0.39788818359375,-0.8726806640625,0.31982421875,-0.80712890625,0.4560546875,23.1875,-45.3125,70.625
0,28,86,235,55,114,90,69,27,0.16339111328125,-0.241455078125,0.39715576171875,-0.8702392578125,0.34375,-0.73876953125,0.44140625,22.125,-35.8125,72.8125
0,27,91,237,58,93,272,104,30,0.17608642578125,-0.24072265625,0.3978271484375,-0.86761474609375,0.35546875,-0.6181640625,0.43994140625,9.25,-22.5,75.5625
0,29,99,193,62,90,278,106,31,0.1878662109375,-0.2384033203125,0.4024658203125,-0.86370849609375,0.3232421875,-0.6259765625,0.47216796875,-14.6875,-12.0625,80.625
0,29,98,207,62,78,284,107,30,0.1998291015625,-0.2349853515625,0.4110107421875,-0.85784912109375,0.23974609375,-0.81201171875,0.47900390625,-31.4375,-8.125,84.8125
0,31,93,192,61,76,286,109,30,0.2127685546875,-0.22979736328125,0.41607666015625,-0.85369873046875,0.22216796875,-0.95068359375,0.46044921875,-0.9375,-2.9375,85.4375
0,29,87,177,60,75,286,100,32,0.22735595703125,-0.22265625,0.4146728515625,-0.8525390625,0.29296875,-0.84033203125,0.47509765625,37.875,1.8125,93.5625
0,30,82,169,55,58,138,63,28,0.2403564453125,-0.21392822265625,0.413330078125,-0.85186767578125,0.3212890625,-0.6572265625,0.4736328125,32.1875,16.5,93.875
0,31,73,192,46,69,184,94,27,0.24951171875,-0.2030029296875,0.417236328125,-0.8499755859375,0.21923828125,-0.6015625,0.45849609375,0.625,38.8125,84.75
0,33,101,209,48,77,193,102,32,0.2569580078125,-0.1912841796875,0.4283447265625,-0.84490966796875,0.1201171875,-0.75634765625,0.4482421875,-37.1875,50.8125,85.8125
0,33,106,214,48,77,190,101,34,0.26519775390625,-0.1776123046875,0.4415283203125,-0.83856201171875,0.01123046875,-0.97412109375,0.4013671875,-36.3125,57.3125,93.4375
0,33,116,224,47,76,189,92,31,0.2750244140625,-0.160400390625,0.4483642578125,-0.835205078125,-0.0634765625,-1.01904296875,0.45654296875,6.9375,61.75,97.3125
0,33,115,228,45,77,175,99,31,0.28546142578125,-0.1409912109375,0.4483642578125,-0.835205078125,-0.03271484375,-0.91455078125,0.4853515625,47.6875,65.75,98.9375
0,31,112,215,44,60,132,98,31,0.294677734375,-0.11956787109375,0.44659423828125,-0.8363037109375,-0.0693359375,-0.724609375,0.4677734375,56.0,76.0,95.25
0,29,83,184,38,44,109,92,28,0.299560546875,-0.09722900390625,0.4495849609375,-0.83587646484375,-0.1435546875,-0.6533203125,0.39306640625,29.9375,96.625,80.0625
0,27,76,170,36,44,106,92,26,0.30035400390625,-0.0751953125,0.45843505859375,-0.83306884765625,-0.20556640625,-0.78466796875,0.39501953125,-9.5,116.125,69.375
0,26,62,149,45,47,104,91,28,0.30029296875,-0.0521240234375,0.46771240234375,-0.82965087890625,-0.2265625,-0.98876953125,0.42822265625,-9.8125,123.9375,70.3125
0,25,60,144,46,46,104,82,26,0.3021240234375,-0.0286865234375,0.47198486328125,-0.8277587890625,-0.302734375,-1.05419921875,0.52734375,18.125,112.875,76.1875
0,26,59,122,45,41,86,51,25,0.30474853515625,-0.00372314453125,0.46795654296875,-0.82952880859375,-0.46142578125,-0.85888671875,0.51416015625,68.9375,102.625,74.125
0,24,51,87,43,44,152,63,24,0.3037109375,0.021484375,0.46160888671875,-0.83319091796875,-0.46240234375,-0.625,0.486328125,83.8125,109.6875,53.25
0,23,51,74,45,45,163,66,24,0.2979736328125,0.044677734375,0.46307373046875,-0.83355712890625,-0.384765625,-0.61279296875,0.4921875,34.6875,127.375,32.1875
0,23,49,60,39,75,163,66,24,0.29046630859375,0.0655517578125,0.47161865234375,-0.83001708984375,-0.48583984375,-0.82470703125,0.53857421875,-11.9375,134.3125,22.4375
0,24,46,60,44,118,168,78,25,0.28192138671875,0.08587646484375,0.4771728515625,-0.82794189453125,-0.61181640625,-0.9375,0.5654296875,6.625,128.125,14.5
0,24,45,58,57,151,184,81,25,0.271484375,0.10662841796875,0.47442626953125,-0.83056640625,-0.62158203125,-0.8896484375,0.59423828125,59.125,120.0,3.125
0,26,48,64,98,210,203,110,37,0.25885009765625,0.12664794921875,0.46856689453125,-0.8350830078125,-0.6337890625,-0.765625,0.58056640625,78.875,116.5,-11.25
0,27,43,64,116,263,241,116,37,0.24407958984375,0.1444091796875,0.4638671875,-0.83929443359375,-0.67822265625,-0.69189453125,0.5478515625,70.4375,113.0,-28.25
0,25,39,63,121,268,243,117,37,0.22772216796875,0.1588134765625,0.4603271484375,-0.84320068359375,-0.68212890625,-0.74560546875,0.62353515625,60.375,103.5625,-45.25
0,27,46,69,125,276,249,111,37,0.2091064453125,0.17181396484375,0.45526123046875,-0.84820556640625,-0.60400390625,-0.78662109375,0.65234375,70.5625,100.625,-58.375
0,29,49,68,132,331,254,105,39,0.1881103515625,0.18463134765625,0.44744873046875,-0.85455322265625,-0.60546875,-0.76611328125,0.6962890625,89.25,101.9375,-69.5
0,25,58,88,110,334,214,62,26,0.167724609375,0.19708251953125,0.437255859375,-0.86126708984375,-0.63330078125,-0.666015625,0.669921875,94.875,94.125,-72.125
0,29,63,93,97,305,163,48,29,0.14776611328125,0.20758056640625,0.42730712890625,-0.867431640625,-0.65869140625,-0.60888671875,0.642578125,89.625,82.0625,-77.8125
0,29,63,90,98,328,168,44,28,0.127197265625,0.215087890625,0.41864013671875,-0.87310791015625,-0.6142578125,-0.5908203125,0.650390625,79.6875,72.0625,-87.4375
0,26,59,82,94,313,158,41,30,0.10491943359375,0.220947265625,0.4112548828125,-0.87811279296875,-0.56787109375,-0.59765625,0.65576171875,73.0625,70.5625,-98.875
0,24,54,79,80,243,129,62,28,0.081298828125,0.2257080078125,0.4046630859375,-0.8824462890625,-0.6015625,-0.60302734375,0.64501953125,74.625,69.5625,-103.9375
0,25,40,54,77,237,122,79,31,0.05889892578125,0.22857666015625,0.3980712890625,-0.886474609375,-0.63916015625,-0.57666015625,0.6083984375,71.625,56.5,-103.25
0,23,32,42,72,254,131,81,30,0.03790283203125,0.22882080078125,0.39202880859375,-0.8902587890625,-0.58447265625,-0.5625,0.6142578125,65.0625,41.0,-101.9375
0,25,30,49,92,271,157,84,29,0.0177001953125,0.2276611328125,0.3865966796875,-0.8935546875,-0.5234375,-0.599609375,0.6064453125,60.4375,33.1875,-101.375
0,28,36,77,101,307,195,90,29,-0.0029296875,0.22637939453125,0.381591796875,-0.89617919921875,-0.5224609375,-0.58984375,0.62109375,57.0625,33.8125,-104.375
0,33,46,104,99,302,221,104,32,-0.02435302734375,0.22509765625,0.3763427734375,-0.89837646484375,-0.51025390625,-0.58251953125,0.59716796875,58.5625,36.0625,-108.0
0,33,53,111,105,274,217,96,31,-0.04522705078125,0.2232666015625,0.37109375,-0.90020751953125,-0.4638671875,-0.5634765625,0.5712890625,57.3125,32.8125,-106.375
0,36,59,123,131,311,238,99,35,-0.06414794921875,0.22174072265625,0.36590576171875,-0.901611328125,-0.38818359375,-0.572265625,0.56689453125,52.25,28.5,-98.4375
0,36,62,134,124,307,319,109,40,-0.08123779296875,0.2205810546875,0.360595703125,-0.90264892578125,-0.33740234375,-0.55859375,0.57470703125,49.3125,29.125,-86.75
0,34,58,121,120,294,340,124,39,-0.09716796875,0.22119140625,0.3548583984375,-0.90313720703125,-0.3486328125,-0.5205078125,0.55322265625,47.4375,35.125,-78.25
0,31,50,101,119,293,331,121,39,-0.112548828125,0.22198486328125,0.348388671875,-0.90374755859375,-0.326171875,-0.490234375,0.5419921875,50.625,35.5625,-73.9375
0,32,48,90,114,290,330,127,39,-0.126953125,0.22320556640625,0.34124755859375,-0.90423583984375,-0.27392578125,-0.4794921875,0.5302734375,52.9375,38.0625,-65.25
0,28,90,77,78,227,332,131,34,-0.13922119140625,0.2257080078125,0.333740234375,-0.90460205078125,-0.24267578125,-0.5107421875,0.53857421875,52.3125,42.125,-48.75
0,29,100,60,59,165,248,139,32,-0.1492919921875,0.2296142578125,0.32476806640625,-0.9052734375,-0.24462890625,-0.53857421875,0.541015625,58.6875,46.3125,-31.8125
0,31,119,68,51,110,191,128,32,-0.15728759765625,0.2347412109375,0.31292724609375,-0.90679931640625,-0.27294921875,-0.52392578125,0.5380859375,71.5625,48.625,-15.5
0,30,143,88,50,105,179,117,30,-0.1630859375,0.24163818359375,0.299072265625,-0.90863037109375,-0.27490234375,-0.44482421875,0.50341796875,76.8125,54.6875,1.375
0,28,149,100,77,102,179,107,32,-0.16705322265625,0.25054931640625,0.2835693359375,-0.91046142578125,-0.30322265625,-0.4052734375,0.5263671875,79.0,63.25,14.9375
0,31,145,112,78,83,131,100,33,-0.16900634765625,0.26165771484375,0.2691650390625,-0.911376953125,-0.37158203125,-0.46533203125,0.51904296875,70.875,69.0,26.9375
0,31,142,129,75,66,105,75,29,-0.16796875,0.27313232421875,0.25384521484375,-0.91259765625,-0.4599609375,-0.41259765625,0.591796875,67.3125,65.25,41.25
0,31,131,131,74,68,82,63,29,-0.1639404296875,0.2835693359375,0.2364501953125,-0.914794921875,-0.53125,-0.3359375,0.66845703125,70.125,55.8125,56.3125
0,32,110,126,77,80,73,48,31,-0.157470703125,0.29345703125,0.22064208984375,-0.916748046875,-0.50830078125,-0.3037109375,0.6904296875,57.0,51.0625,67.125
0,36,116,122,58,109,73,48,34,-0.14703369140625,0.3046875,0.2098388671875,-0.9173583984375,-0.564453125,-0.27978515625,0.69580078125,20.75,49.9375,78.6875
0,33,97,111,58,112,78,42,33,-0.1314697265625,0.31707763671875,0.2047119140625,-0.91668701171875,-0.703125,-0.19677734375,0.7314453125,-25.0625,43.5625,89.75
0,33,97,103,56,114,72,34,33,-0.1121826171875,0.327880859375,0.205810546875,-0.91522216796875,-0.83349609375,-0.18896484375,0.7421875,-64.875,23.375,91.9375
0,33,97,116,53,109,74,35,32,-0.0933837890625,0.334716796875,0.21051025390625,-0.91375732421875,-0.8505859375,-0.318359375,0.7734375,-75.125,3.0,83.125
0,31,106,132,53,124,92,32,30,-0.07550048828125,0.33770751953125,0.21600341796875,-0.91302490234375,-0.79931640625,-0.47119140625,0.7802734375,-67.5,-13.75,80.375
0,29,96,147,68,157,89,28,24,-0.05694580078125,0.33807373046875,0.2196044921875,-0.91339111328125,-0.83251953125,-0.54638671875,0.78759765625,-52.875,-29.9375,87.6875
0,28,110,156,70,172,103,28,25,-0.0369873046875,0.33612060546875,0.22052001953125,-0.9149169921875,-0.8876953125,-0.5419921875,0.7841796875,-38.4375,-48.0,97.0
0,28,107,147,76,191,117,29,24,-0.01678466796875,0.33154296875,0.2191162109375,-0.91748046875,-0.8583984375,-0.49609375,0.802734375,-26.8125,-61.75,99.375
0,26,103,134,78,191,120,31,26,0.00372314453125,0.32550048828125,0.218505859375,-0.91998291015625,-0.83984375,-0.40576171875,0.8251953125,-35.3125,-68.4375,95.0625
0,26,95,125,79,187,103,31,26,0.02496337890625,0.31768798828125,0.222412109375,-0.92144775390625,-0.802734375,-0.349609375,0.779296875,-62.8125,-77.3125,87.25
0,27,96,106,70,178,118,30,26,0.0460205078125,0.30670166015625,0.231689453125,-0.92205810546875,-0.71533203125,-0.38134765625,0.7421875,-90.125,-89.5,75.75
0,26,75,106,73,191,104,30,27,0.065673828125,0.2923583984375,0.24334716796875,-0.9224853515625,-0.62890625,-0.44677734375,0.70166015625,-98.8125,-100.5,64.0625
0,25,70,105,70,178,89,28,25,0.08367919921875,0.2757568359375,0.25433349609375,-0.9232177734375,-0.58837890625,-0.505859375,0.681640625,-92.4375,-110.8125,54.125
0,28,72,109,71,196,93,28,27,0.099609375,0.25738525390625,0.2626953125,-0.924560546875,-0.541015625,-0.560546875,0.685546875,-74.3125,-118.9375,44.75
0,28,66,106,64,189,114,30,28,0.1138916015625,0.23822021484375,0.2677001953125,-0.9266357421875,-0.49609375,-0.54443359375,0.69189453125,-53.4375,-123.6875,38.9375
0,26,68,123,55,155,97,30,26,0.12762451171875,0.21856689453125,0.27166748046875,-0.92852783203125,-0.4736328125,-0.4951171875,0.69873046875,-48.9375,-125.9375,36.5
0,27,66,141,50,144,101,30,24,0.14105224609375,0.19842529296875,0.27685546875,-0.9295654296875,-0.45654296875,-0.51123046875,0.69921875,-56.125,-126.25,33.3125
0,31,71,148,60,209,132,36,29,0.1536865234375,0.17803955078125,0.28363037109375,-0.9296875,-0.44921875,-0.5302734375,0.67724609375,-65.3125,-124.5625,27.4375
0,28,71,157,61,216,150,48,29,0.16485595703125,0.15771484375,0.291015625,-0.92913818359375,-0.42626953125,-0.56103515625,0.67626953125,-67.75,-120.3125,19.4375
0,28,80,163,84,235,265,145,34,0.17413330078125,0.1375732421875,0.29864501953125,-0.92822265625,-0.42236328125,-0.59814453125,0.6826171875,-67.4375,-116.5,9.6875
0,32,77,158,88,264,283,171,37,0.1805419921875,0.11663818359375,0.305908203125,-0.927490234375,-0.41796875,-0.6572265625,0.66650390625,-63.0625,-116.3125,-6.625
0,34,84,169,110,283,296,176,43,0.184326171875,0.09539794921875,0.3125,-0.927001953125,-0.455078125,-0.7802734375,0.67041015625,-56.25,-115.0625,-21.375
0,34,95,169,117,275,320,190,44,0.18646240234375,0.07489013671875,0.316650390625,-0.927001953125,-0.4765625,-0.7958984375,0.6064453125,-39.9375,-112.3125,-28.6875
0,36,114,166,128,296,358,227,47,0.187255859375,0.054931640625,0.317626953125,-0.92791748046875,-0.4404296875,-0.80126953125,0.60009765625,-20.0,-110.5,-34.5625
0,38,110,167,120,299,303,209,47,0.1845703125,0.0350341796875,0.31756591796875,-0.929443359375,-0.43896484375,-0.87890625,0.6416015625,-11.9375,-105.5625,-53.5
0,35,105,169,119,284,312,197,47,0.1785888671875,0.01507568359375,0.31591796875,-0.93170166015625,-0.380859375,-0.84033203125,0.58544921875,-1.25,-101.625,-71.8125
0,35,102,135,103,263,318,207,45,0.1702880859375,-0.00384521484375,0.31524658203125,-0.93359375,-0.27392578125,-0.77978515625,0.59619140625,7.5,-98.4375,-86.125
0,33,92,140,112,274,325,208,41,0.158935546875,-0.02252197265625,0.31451416015625,-0.93560791015625,-0.1357421875,-0.68310546875,0.533203125,5.125,-86.125,-99.4375
0,31,71,136,100,275,297,175,38,0.144287109375,-0.0399169921875,0.3131103515625,-0.9378662109375,-0.005859375,-0.671875,0.53564453125,-2.5625,-67.5625,-111.9375
0,28,70,132,100,279,273,143,32,0.1270751953125,-0.05517578125,0.31182861328125,-0.94000244140625,0.0478515625,-0.67041015625,0.5390625,-2.3125,-51.625,-121.625
0,27,68,156,97,274,258,137,31,0.1085205078125,-0.06793212890625,0.30908203125,-0.9423828125,0.1103515625,-0.66796875,0.548828125,7.5,-35.9375,-124.875
0,24,65,164,92,269,255,132,29,0.0889892578125,-0.07763671875,0.30499267578125,-0.94500732421875,0.16259765625,-0.578125,0.5419921875,15.5,-18.1875,-125.3125
0,25,59,178,72,247,263,145,29,0.06829833984375,-0.08441162109375,0.30145263671875,-0.947265625,0.1884765625,-0.55224609375,0.52978515625,12.8125,0.375,-125.9375
0,27,60,190,82,231,273,134,30,0.0462646484375,-0.088134765625,0.2991943359375,-0.94903564453125,0.21923828125,-0.5625,0.564453125,5.4375,19.3125,-127.0
0,27,53,185,80,217,278,137,30,0.02337646484375,-0.0877685546875,0.29925537109375,-0.9498291015625,0.2490234375,-0.5615234375,0.55908203125,-8.0625,43.5625,-123.0625
0,28,55,165,80,214,267,143,30,0.00042724609375,-0.0838623046875,0.2998046875,-0.9503173828125,0.2373046875,-0.55322265625,0.53564453125,-10.625,62.875,-117.125
0,28,55,168,89,225,245,130,26,-0.02252197265625,-0.0765380859375,0.3004150390625,-0.95050048828125,0.2529296875,-0.55810546875,0.56982421875,-11.8125,81.1875,-111.375
0,31,60,183,81,218,179,94,28,-0.04486083984375,-0.06658935546875,0.3018798828125,-0.95001220703125,0.2412109375,-0.58203125,0.57177734375,-17.3125,93.8125,-103.25
0,37,53,173,70,184,135,139,28,-0.06524658203125,-0.05462646484375,0.30377197265625,-0.948974609375,0.22314453125,-0.568359375,0.5732421875,-20.6875,101.3125,-89.125
0,37,60,221,68,168,137,142,30,-0.0828857421875,-0.04083251953125,0.30419921875,-0.9481201171875,0.20166015625,-0.53125,0.60888671875,-13.25,106.625,-71.375
0,36,55,222,71,159,131,131,29,-0.097412109375,-0.0264892578125,0.30316162109375,-0.94757080078125,0.1640625,-0.48388671875,0.64404296875,-5.0625,104.8125,-53.75
0,37,55,214,61,136,138,131,31,-0.1090087890625,-0.01312255859375,0.30352783203125,-0.94647216796875,0.13330078125,-0.49951171875,0.70166015625,-12.5,95.4375,-38.25
0,36,50,184,69,83,130,126,29,-0.11749267578125,-0.00103759765625,0.30352783203125,-0.945556640625,0.07861328125,-0.56396484375,0.80419921875,-9.9375,80.375,-25.0625
0,27,51,209,72,82,109,68,27,-0.1231689453125,0.00982666015625,0.30023193359375,-0.94586181640625,0.01953125,-0.578125,0.86962890625,9.3125,68.875,-13.25
0,29,46,177,68,86,87,54,26,-0.12591552734375,0.01953125,0.29644775390625,-0.946533203125,-0.0400390625,-0.52392578125,0.90185546875,9.3125,55.0625,-0.4375
0,29,48,192,67,104,88,48,27,-0.12603759765625,0.02642822265625,0.29534912109375,-0.94671630859375,-0.08935546875,-0.5419921875,0.9443359375,-4.9375,31.625,6.5625
0,28,49,227,69,97,74,39,26,-0.12481689453125,0.0299072265625,0.29638671875,-0.9464111328125,-0.07275390625,-0.6162109375,1.00146484375,-13.5625,10.375,8.6875
0,28,48,225,58,99,70,39,28,-0.1219482421875,0.02960205078125,0.29736328125,-0.94647216796875,-0.04248046875,-0.61767578125,1.0107421875,-10.375,-10.8125,12.375
0,27,44,223,50,94,69,37,28,-0.11737060546875,0.025634765625,0.29852294921875,-0.94683837890625,-0.025390625,-0.59033203125,1.009765625,-10.375,-33.125,16.0625
0,25,47,217,65,111,62,32,27,-0.11126708984375,0.0186767578125,0.30120849609375,-0.9468994140625,-0.01123046875,-0.640625,0.998046875,-14.1875,-53.0625,18.875
0,28,48,199,65,98,60,49,26,-0.10345458984375,0.00927734375,0.30462646484375,-0.94683837890625,-0.00048828125,-0.69580078125,0.974609375,-13.3125,-69.75,23.5625
0,29,45,192,69,110,172,92,32,-0.09375,-0.0023193359375,0.3057861328125,-0.947509765625,0.02294921875,-0.6591796875,0.94189453125,0.375,-83.4375,30.6875
0,29,46,222,69,109,207,125,34,-0.08349609375,-0.0150146484375,0.30645751953125,-0.9481201171875,0.0458984375,-0.640625,0.95947265625,1.875,-90.1875,32.125
0,32,51,209,74,109,214,129,38,-0.07232666015625,-0.02783203125,0.308349609375,-0.9481201171875,0.04736328125,-0.6513671875,0.89794921875,-2.75,-93.5,35.625
0,31,51,210,62,81,228,133,37,-0.05975341796875,-0.04083251953125,0.3092041015625,-0.9482421875,0.048828125,-0.5966796875,0.84912109375,2.125,-97.4375,42.875
0,31,53,253,63,92,279,163,43,-0.04705810546875,-0.05389404296875,0.30963134765625,-0.94818115234375,0.076171875,-0.57958984375,0.83837890625,3.4375,-97.0625,43.5625
0,33,73,273,53,77,237,150,39,-0.03448486328125,-0.06634521484375,0.31048583984375,-0.9476318359375,0.08447265625,-0.64111328125,0.8125,4.0625,-93.9375,43.1875
0,33,72,262,56,69,211,129,38,-0.0206298828125,-0.07794189453125,0.31005859375,-0.94732666015625,0.05908203125,-0.69384765625,0.78564453125,15.875,-93.1875,48.9375
0,30,72,305,51,64,207,127,34,-0.00506591796875,-0.089111328125,0.30609130859375,-0.94781494140625,0.0546875,-0.62060546875,0.74951171875,35.0,-93.5,57.6875
0,30,72,317,50,61,192,124,34,0.0108642578125,-0.09967041015625,0.30133056640625,-0.9482421875,0.05908203125,-0.48291015625,0.7021484375,34.0625,-90.6875,61.6875
0,30,73,292,49,37,105,73,27,0.02569580078125,-0.10943603515625,0.29925537109375,-0.94757080078125,0.0517578125,-0.43505859375,0.64794921875,16.1875,-85.0,58.75
0,29,59,270,50,33,84,59,26,0.03948974609375,-0.11859130859375,0.2999267578125,-0.94580078125,0.07470703125,-0.46630859375,0.64892578125,0.4375,-79.5625,56.1875
0,32,65,261,49,34,72,50,25,0.0533447265625,-0.12738037109375,0.30145263671875,-0.94342041015625,0.13525390625,-0.4921875,0.607421875,-2.75,-74.125,60.0625
0,35,65,245,48,31,53,56,25,0.06719970703125,-0.135498046875,0.3016357421875,-0.94134521484375,0.21337890625,-0.462890625,0.5810546875,4.3125,-66.5,63.5625
0,36,62,293,50,44,229,103,36,0.08123779296875,-0.1424560546875,0.30084228515625,-0.93951416015625,0.26220703125,-0.4189453125,0.57421875,8.3125,-57.875,68.0
0,35,63,315,53,42,243,104,35,0.09637451171875,-0.14739990234375,0.299560546875,-0.937744140625,0.29052734375,-0.39404296875,0.58056640625,11.25,-47.8125,78.625
0,33,87,310,68,53,256,133,37,0.11407470703125,-0.14947509765625,0.299072265625,-0.935546875,0.3154296875,-0.46875,0.58203125,13.5625,-35.375,98.625
0,32,133,312,68,56,283,155,37,0.13409423828125,-0.1466064453125,0.2998046875,-0.93310546875,0.30615234375,-0.46533203125,0.63525390625,10.4375,-18.5625,116.1875
0,54,136,280,68,58,288,162,58,0.15423583984375,-0.1400146484375,0.30108642578125,-0.93060302734375,0.234375,-0.47314453125,0.6513671875,10.375,0.75,123.1875
0,55,138,204,67,52,193,139,54,0.17156982421875,-0.1312255859375,0.3052978515625,-0.92742919921875,0.125,-0.43896484375,0.650390625,-7.0625,18.375,113.9375
0,55,140,148,62,54,181,156,56,0.18621826171875,-0.12005615234375,0.314697265625,-0.9229736328125,0.08056640625,-0.46875,0.6708984375,-36.6875,39.3125,108.8125
0,57,127,122,46,48,179,141,57,0.19927978515625,-0.10723876953125,0.3294677734375,-0.91668701171875,0.0107421875,-0.5966796875,0.64697265625,-66.4375,55.1875,108.375
0,55,78,107,43,48,190,148,57,0.210693359375,-0.09271240234375,0.34429931640625,-0.91021728515625,-0.0595703125,-0.67138671875,0.6357421875,-65.25,66.5625,102.9375
0,34,72,109,41,47,184,141,35,0.22052001953125,-0.07666015625,0.35650634765625,-0.9046630859375,-0.07666015625,-0.7353515625,0.591796875,-40.1875,72.9375,93.3125
0,33,72,113,40,43,179,139,32,0.22894287109375,-0.0596923828125,0.36553955078125,-0.90020751953125,-0.03857421875,-0.73876953125,0.53857421875,-19.25,80.75,88.875
0,36,85,153,42,47,181,127,31,0.235595703125,-0.042236328125,0.37255859375,-0.8966064453125,-0.00732421875,-0.72802734375,0.51904296875,-6.9375,87.6875,82.75
0,35,80,161,51,48,165,121,29,0.24066162109375,-0.02178955078125,0.37744140625,-0.89398193359375,-0.00634765625,-0.7978515625,0.501953125,2.0,101.1875,75.9375
0,35,77,158,56,52,106,90,28,0.2437744140625,0.0003662109375,0.3818359375,-0.8914794921875,-0.1484375,-0.8134765625,0.54541015625,6.5,112.5,68.8125
0,32,74,149,54,50,105,87,27,0.24456787109375,0.0244140625,0.38250732421875,-0.89068603515625,-0.2666015625,-0.83056640625,0.59912109375,31.8125,121.25,57.8125
0,32,70,138,55,50,98,92,29,0.2437744140625,0.04864501953125,0.3797607421875,-0.89105224609375,-0.30322265625,-0.79248046875,0.64404296875,51.3125,120.6875,49.3125
0,30,57,93,51,63,90,92,27,0.24169921875,0.0716552734375,0.37689208984375,-0.89129638671875,-0.32373046875,-0.7470703125,0.650390625,49.5,117.75,40.1875
0,28,66,83,42,78,105,101,23,0.2376708984375,0.09375,0.3759765625,-0.89068603515625,-0.34033203125,-0.67431640625,0.6689453125,36.75,120.3125,28.8125
0,28,76,81,39,80,97,96,24,0.23016357421875,0.11578369140625,0.376953125,-0.8896484375,-0.37744140625,-0.701171875,0.67431640625,27.75,130.1875,10.5625
0,29,75,78,42,94,112,97,26,0.2196044921875,0.13763427734375,0.37860107421875,-0.8885498046875,-0.44091796875,-0.748046875,0.6708984375,26.6875,137.125,-5.75
0,27,73,76,38,107,117,91,25,0.20758056640625,0.158935546875,0.37847900390625,-0.887939453125,-0.48388671875,-0.77197265625,0.66357421875,37.5,134.0,-13.5
0,25,60,64,45,109,114,76,23,0.19415283203125,0.17901611328125,0.37457275390625,-0.8887939453125,-0.47021484375,-0.76123046875,0.65380859375,59.9375,125.6875,-21.0
0,26,52,45,44,145,110,55,24,0.177978515625,0.198486328125,0.36663818359375,-0.891357421875,-0.4296875,-0.70556640625,0.64892578125,85.5625,123.1875,-33.9375
0,28,40,49,52,159,121,47,26,0.15850830078125,0.21746826171875,0.35662841796875,-0.8946533203125,-0.47265625,-0.6865234375,0.669921875,100.6875,124.375,-50.0
0,27,48,61,62,219,119,33,25,0.13751220703125,0.2342529296875,0.34527587890625,-0.89837646484375,-0.54443359375,-0.62353515625,0.65478515625,107.875,113.625,-62.4375
0,31,51,69,78,312,150,56,29,0.11669921875,0.24676513671875,0.33502197265625,-0.90179443359375,-0.5439453125,-0.54296875,0.724609375,94.4375,94.5,-72.1875
0,31,50,70,81,327,164,72,29,0.0943603515625,0.25555419921875,0.32672119140625,-0.905029296875,-0.46435546875,-0.5478515625,0.78173828125,82.125,85.75,-86.5
0,32,47,71,84,335,183,80,33,0.0699462890625,0.26318359375,0.31939697265625,-0.90765380859375,-0.46630859375,-0.5732421875,0.8076171875,78.625,85.625,-99.6875
0,30,44,66,89,345,194,80,34,0.044921875,0.27044677734375,0.3123779296875,-0.9095458984375,-0.53125,-0.5537109375,0.80126953125,79.5,79.1875,-107.0625
0,30,45,58,86,320,193,81,33,0.021484375,0.274658203125,0.30731201171875,-0.910888671875,-0.5908203125,-0.53271484375,0.81201171875,64.4375,61.125,-108.125
0,26,42,54,83,249,167,67,29,-0.0013427734375,0.27618408203125,0.3033447265625,-0.9119873046875,-0.57177734375,-0.52197265625,0.830078125,56.6875,46.5625,-111.125
0,28,46,60,80,231,150,50,34,-0.0257568359375,0.27642822265625,0.2991943359375,-0.91290283203125,-0.5498046875,-0.53076171875,0.83056640625,60.1875,42.9375,-121.625
0,28,46,59,101,245,151,37,31,-0.04998779296875,0.27447509765625,0.29595947265625,-0.91357421875,-0.5732421875,-0.48779296875,0.80126953125,54.3125,30.5,-126.375
0,26,46,59,98,225,129,36,29,-0.07122802734375,0.26861572265625,0.29547119140625,-0.9140625,-0.53076171875,-0.46533203125,0.79833984375,35.875,4.9375,-122.0
0,26,40,64,100,231,124,35,29,-0.0899658203125,0.25958251953125,0.295654296875,-0.9149169921875,-0.46435546875,-0.49072265625,0.80517578125,30.75,-16.6875,-114.75
0,27,46,89,131,207,118,34,31,-0.10699462890625,0.2481689453125,0.295654296875,-0.916259765625,-0.42724609375,-0.4482421875,0.81884765625,30.3125,-32.8125,-109.3125
0,26,49,113,135,204,125,33,27,-0.122314453125,0.23492431640625,0.29693603515625,-0.91741943359375,-0.3828125,-0.404296875,0.76953125,22.125,-45.625,-105.5625
0,27,51,117,122,139,81,31,27,-0.13427734375,0.22076416015625,0.29998779296875,-0.91827392578125,-0.34375,-0.38818359375,0.73974609375,-0.625,-57.75,-96.25
0,27,50,118,118,133,73,30,27,-0.1439208984375,0.206298828125,0.30615234375,-0.91815185546875,-0.31640625,-0.40576171875,0.7216796875,-19.9375,-65.4375,-89.4375
0,26,46,115,116,81,62,29,26,-0.15191650390625,0.19195556640625,0.31390380859375,-0.9173583984375,-0.2744140625,-0.421875,0.70361328125,-30.5625,-68.25,-81.8125
0,26,40,93,70,70,60,41,24,-0.1619873046875,0.16558837890625,0.33172607421875,-0.91448974609375,-0.19775390625,-0.46435546875,0.63916015625,-40.375,-67.0,-57.75
0,25,30,54,57,55,43,52,25,-0.16400146484375,0.154541015625,0.34027099609375,-0.9129638671875,-0.1708984375,-0.4873046875,0.59912109375,-39.1875,-61.875,-43.0625
0,24,23,47,47,44,69,92,28,-0.1644287109375,0.1456298828125,0.3475341796875,-0.91156005859375,-0.12939453125,-0.505859375,0.59228515625,-35.0,-51.75,-28.5
0,29,68,146,47,43,163,128,30,-0.164306640625,0.139892578125,0.35089111328125,-0.9112548828125,-0.10107421875,-0.5263671875,0.62841796875,-16.8125,-32.125,-13.625
0,31,76,162,47,43,175,132,33,-0.16259765625,0.13787841796875,0.35015869140625,-0.912109375,-0.10791015625,-0.57275390625,0.615234375,5.5625,-13.375,6.75
0,33,80,166,45,39,178,132,33,-0.1590576171875,0.1390380859375,0.3450927734375,-0.91448974609375,-0.1123046875,-0.54541015625,0.65380859375,24.0,2.6875,27.0
0,34,91,187,48,40,180,132,32,-0.15380859375,0.14483642578125,0.3380126953125,-0.91717529296875,-0.15869140625,-0.47900390625,0.64453125,27.25,23.375,45.125
0,35,108,196,56,40,171,108,30,-0.14697265625,0.1566162109375,0.33013916015625,-0.919189453125,-0.26025390625,-0.41943359375,0.58349609375,23.75,48.4375,61.0
0,33,107,142,51,31,88,65,27,-0.13690185546875,0.173828125,0.325439453125,-0.9193115234375,-0.41064453125,-0.384765625,0.57080078125,-4.6875,63.5,77.3125
0,31,108,130,48,34,63,58,26,-0.12347412109375,0.19390869140625,0.32977294921875,-0.9156494140625,-0.61279296875,-0.494140625,0.60009765625,-61.75,62.0625,82.875
0,29,120,132,54,36,53,51,26,-0.1065673828125,0.21258544921875,0.339599609375,-0.9100341796875,-0.7353515625,-0.66552734375,0.6171875,-91.0625,43.4375,89.5
0,27,119,112,63,87,65,44,28,-0.087158203125,0.22412109375,0.34893798828125,-0.90576171875,-0.76416015625,-0.76171875,0.587890625,-85.6875,16.5625,105.6875
0,27,123,113,64,107,66,41,26,-0.0640869140625,0.232666015625,0.35675048828125,-0.90252685546875,-0.82666015625,-0.7236328125,0.615234375,-80.0625,-6.625,120.1875
0,28,128,123,69,109,103,44,26,-0.0404052734375,0.23797607421875,0.3662109375,-0.898681640625,-0.8603515625,-0.708984375,0.66943359375,-90.5,-24.0625,114.0
0,29,130,162,68,115,190,103,28,-0.0164794921875,0.24066162109375,0.3753662109375,-0.89495849609375,-0.81689453125,-0.71240234375,0.72314453125,-92.3125,-47.3125,97.6875
0,33,131,190,65,118,202,130,28,0.00787353515625,0.23822021484375,0.38336181640625,-0.892333984375,-0.734375,-0.7333984375,0.705078125,-83.25,-71.4375,95.1875
0,32,133,194,62,100,202,130,26,0.03302001953125,0.2313232421875,0.390380859375,-0.8905029296875,-0.6611328125,-0.7353515625,0.69140625,-75.0625,-89.375,101.6875
0,33,127,217,59,113,226,135,26,0.05877685546875,0.22216796875,0.397216796875,-0.88848876953125,-0.64599609375,-0.76513671875,0.669921875,-75.3125,-101.8125,100.6875
0,32,115,231,56,125,233,145,31,0.08349609375,0.210693359375,0.40350341796875,-0.886474609375,-0.6201171875,-0.7763671875,0.60888671875,-71.4375,-111.75,91.125
0,31,110,207,58,128,194,119,29,0.10791015625,0.196533203125,0.41021728515625,-0.884033203125,-0.60009765625,-0.84912109375,0.57958984375,-74.0625,-123.9375,83.625
0,29,97,181,67,163,215,106,36,0.13232421875,0.18011474609375,0.4158935546875,-0.88153076171875,-0.58154296875,-0.9091796875,0.54296875,-69.6875,-136.125,80.1875
0,28,97,173,103,254,260,139,39,0.15673828125,0.16168212890625,0.419677734375,-0.87933349609375,-0.58935546875,-0.9501953125,0.5029296875,-59.5625,-148.5625,77.125
0,26,84,133,106,267,265,142,39,0.1802978515625,0.14056396484375,0.42138671875,-0.87762451171875,-0.58251953125,-0.9423828125,0.47021484375,-49.3125,-163.0,67.4375
0,31,75,107,111,321,298,142,42,0.20245361328125,0.1173095703125,0.4222412109375,-0.87579345703125,-0.55615234375,-0.98046875,0.447265625,-45.625,-171.25,56.4375
0,30,77,135,116,335,288,166,43,0.2235107421875,0.0919189453125,0.4212646484375,-0.8741455078125,-0.54345703125,-1.021484375,0.45654296875,-37.125,-181.625,46.5625
0,32,73,141,114,330,332,185,43,0.2432861328125,0.06512451171875,0.417724609375,-0.87298583984375,-0.47607421875,-0.98779296875,0.45947265625,-24.375,-188.4375,37.5625
0,32,59,140,78,265,315,165,40,0.26202392578125,0.03717041015625,0.4124755859375,-0.8717041015625,-0.3916015625,-0.93310546875,0.44873046875,-17.5625,-193.875,30.625
0,33,61,204,72,251,329,169,40,0.27880859375,0.00848388671875,0.4061279296875,-0.8702392578125,-0.30615234375,-0.89697265625,0.43994140625,-13.4375,-194.125,19.5625
0,30,60,257,62,169,345,180,37,0.29296875,-0.02105712890625,0.399658203125,-0.86834716796875,-0.22119140625,-0.91064453125,0.4521484375,-14.9375,-191.6875,5.75
0,30,55,248,51,148,361,163,37,0.30474853515625,-0.05108642578125,0.39166259765625,-0.86663818359375,-0.12255859375,-0.92822265625,0.451171875,-7.75,-190.5,-7.125
0,28,55,253,63,156,321,148,33,0.3154296875,-0.08087158203125,0.38140869140625,-0.86517333984375,-0.0107421875,-0.919921875,0.46044921875,4.0625,-189.6875,-12.5625
0,28,58,271,61,151,332,149,34,0.32440185546875,-0.1092529296875,0.369384765625,-0.86395263671875,0.05029296875,-0.89599609375,0.45703125,14.875,-181.625,-19.625
0,29,55,231,62,137,332,160,36,0.330810546875,-0.135986328125,0.35675048828125,-0.863037109375,0.08203125,-0.8359375,0.43212890625,19.9375,-169.0625,-29.875
0,24,45,175,90,209,309,173,33,0.33355712890625,-0.16070556640625,0.34527587890625,-0.86236572265625,0.15087890625,-0.8369140625,0.416015625,15.9375,-148.875,-43.1875
0,30,58,197,125,271,313,167,34,0.33294677734375,-0.1826171875,0.33642578125,-0.86175537109375,0.2041015625,-0.841796875,0.39404296875,5.625,-122.5,-52.3125
0,31,58,192,119,256,320,175,33,0.32843017578125,-0.2032470703125,0.33135986328125,-0.86083984375,0.2001953125,-0.88916015625,0.359375,5.0,-97.75,-63.4375
0,30,55,184,124,260,320,206,34,0.3211669921875,-0.2203369140625,0.32470703125,-0.86187744140625,0.2431640625,-0.88818359375,0.33251953125,20.875,-74.4375,-76.375
0,32,57,190,128,260,294,197,30,0.3114013671875,-0.2344970703125,0.318603515625,-0.864013671875,0.2890625,-0.8466796875,0.31103515625,21.375,-51.375,-84.125
0,33,60,201,121,241,258,174,29,0.2999267578125,-0.24578857421875,0.31304931640625,-0.86700439453125,0.29248046875,-0.81494140625,0.2919921875,22.3125,-32.0625,-89.5625
0,28,47,174,85,175,238,190,28,0.28692626953125,-0.25439453125,0.30712890625,-0.8709716796875,0.33154296875,-0.74169921875,0.2861328125,25.3125,-13.875,-93.125
0,27,48,175,82,177,215,188,28,0.2733154296875,-0.2598876953125,0.3011474609375,-0.8758544921875,0.37060546875,-0.65185546875,0.29541015625,27.0,5.25,-90.125
0,29,51,174,79,175,174,154,28,0.259521484375,-0.26275634765625,0.29571533203125,-0.88104248046875,0.42578125,-0.58056640625,0.322265625,24.375,22.0,-83.4375
0,25,43,188,74,172,169,154,28,0.24554443359375,-0.2628173828125,0.29095458984375,-0.8865966796875,0.4384765625,-0.5390625,0.37841796875,21.75,36.9375,-78.4375
0,25,54,183,59,119,157,154,28,0.23150634765625,-0.26068115234375,0.28765869140625,-0.89202880859375,0.41943359375,-0.5205078125,0.40087890625,15.5,49.0,-74.25
0,28,57,183,60,97,163,133,27,0.21734619140625,-0.2564697265625,0.2864990234375,-0.89715576171875,0.43115234375,-0.49560546875,0.40185546875,5.6875,62.5625,-66.6875
0,26,57,196,59,80,150,112,26,0.2039794921875,-0.24969482421875,0.2874755859375,-0.90191650390625,0.43310546875,-0.4599609375,0.4296875,-3.9375,76.5,-53.9375
0,25,54,191,53,70,144,122,26,0.1927490234375,-0.24017333984375,0.291259765625,-0.90576171875,0.4033203125,-0.4970703125,0.4619140625,-13.375,87.3125,-35.25
0,26,63,205,49,63,132,112,26,0.18426513671875,-0.229248046875,0.2955322265625,-0.908935546875,0.3896484375,-0.51611328125,0.50048828125,-12.1875,88.8125,-17.6875
0,26,59,224,42,63,130,98,28,0.17803955078125,-0.21661376953125,0.29925537109375,-0.91204833984375,0.37255859375,-0.55712890625,0.55908203125,-5.0625,92.25,-4.5
0,26,66,249,38,52,145,99,31,0.17364501953125,-0.20159912109375,0.3018798828125,-0.91546630859375,0.30126953125,-0.52978515625,0.62841796875,2.125,96.375,5.9375
0,27,65,235,42,57,149,97,31,0.169677734375,-0.18511962890625,0.304931640625,-0.918701171875,0.23095703125,-0.50732421875,0.66015625,0.5625,100.4375,8.25
0,28,65,225,45,54,144,75,31,0.1658935546875,-0.1678466796875,0.31060791015625,-0.9207763671875,0.2060546875,-0.5556640625,0.6484375,-13.0625,105.625,14.5
0,27,57,188,44,52,142,71,32,0.1634521484375,-0.149169921875,0.31732177734375,-0.92218017578125,0.20458984375,-0.638671875,0.66259765625,-16.8125,111.5625,25.9375
0,26,51,170,49,44,141,69,29,0.1627197265625,-0.12896728515625,0.3223876953125,-0.923583984375,0.19580078125,-0.68212890625,0.64990234375,-4.125,115.0625,36.5
0,24,40,144,54,43,90,56,27,0.16400146484375,-0.10858154296875,0.32647705078125,-0.924560546875,0.103515625,-0.77978515625,0.65625,3.1875,110.25,46.1875
0,24,35,136,49,37,64,33,27,0.168701171875,-0.0880126953125,0.33197021484375,-0.92388916015625,-0.07373046875,-0.841796875,0.67626953125,6.5625,98.6875,61.0
0,25,35,136,46,39,56,29,27,0.17608642578125,-0.06695556640625,0.33648681640625,-0.92266845703125,-0.22119140625,-0.83349609375,0.7138671875,10.375,89.0625,71.9375
0,26,35,131,46,40,74,62,26,0.1842041015625,-0.0457763671875,0.337646484375,-0.92193603515625,-0.171875,-0.66259765625,0.8369140625,15.0625,90.1875,78.8125
0,25,33,99,45,48,88,69,25,0.19024658203125,-0.02392578125,0.3411865234375,-0.92022705078125,-0.05859375,-0.50927734375,0.93701171875,-1.1875,107.875,77.25
0,28,33,71,40,50,113,72,26,0.1937255859375,-0.0015869140625,0.3521728515625,-0.9156494140625,-0.15380859375,-0.49560546875,1.01416015625,-47.0,122.5625,67.9375
0,30,36,78,44,65,121,82,27,0.19720458984375,0.02008056640625,0.36700439453125,-0.90887451171875,-0.30810546875,-0.62109375,0.94140625,-70.4375,122.0625,68.125
0,29,37,80,45,70,123,94,28,0.20135498046875,0.0419921875,0.3773193359375,-0.9029541015625,-0.32568359375,-0.658203125,0.912109375,-44.25,117.0,72.0625
0,28,39,83,47,83,117,88,27,0.204345703125,0.0631103515625,0.3792724609375,-0.90020751953125,-0.34912109375,-0.6083984375,0.9169921875,4.4375,105.875,62.6875
0,31,44,92,45,90,157,135,29,0.20465087890625,0.08270263671875,0.37518310546875,-0.9002685546875,-0.34228515625,-0.59033203125,0.85498046875,34.6875,96.5,42.9375
0,29,43,93,42,106,151,138,29,0.20281982421875,0.10003662109375,0.369873046875,-0.901123046875,-0.38232421875,-0.6171875,0.80712890625,45.375,86.5625,26.875
0,25,42,88,37,128,179,163,29,0.201171875,0.115234375,0.3642578125,-0.9019775390625,-0.4013671875,-0.64453125,0.734375,49.9375,73.1875,24.75
0,27,42,87,58,167,187,164,30,0.19989013671875,0.12799072265625,0.3583984375,-0.90289306640625,-0.4248046875,-0.66650390625,0.67578125,52.75,57.9375,22.375
0,26,39,86,66,224,222,162,29,0.1981201171875,0.138916015625,0.3533935546875,-0.90362548828125,-0.53271484375,-0.65869140625,0.68310546875,46.0,46.125,12.4375
0,27,34,65,73,231,200,146,32,0.194580078125,0.14727783203125,0.35009765625,-0.90435791015625,-0.60009765625,-0.6328125,0.65966796875,35.8125,34.8125,-6.375
0,29,33,56,80,258,226,173,32,0.1890869140625,0.15240478515625,0.3485107421875,-0.90533447265625,-0.5791015625,-0.6181640625,0.66552734375,24.375,24.875,-23.6875
0,30,34,61,96,269,226,159,35,0.18170166015625,0.1541748046875,0.34918212890625,-0.90625,-0.5732421875,-0.634765625,0.705078125,9.375,15.5,-41.3125
0,31,33,59,90,255,253,177,34,0.1732177734375,0.15362548828125,0.3515625,-0.9071044921875,-0.5634765625,-0.6708984375,0.69677734375,1.125,7.375,-52.75
0,34,35,57,91,212,241,180,36,0.16424560546875,0.15130615234375,0.35321044921875,-0.90850830078125,-0.5771484375,-0.68701171875,0.70458984375,4.1875,-2.9375,-59.4375
0,33,33,55,86,207,243,165,33,0.1546630859375,0.14776611328125,0.35308837890625,-0.91082763671875,-0.58056640625,-0.66259765625,0.708984375,13.4375,-10.9375,-65.75
0,34,35,51,83,169,220,135,35,0.14422607421875,0.14239501953125,0.35260009765625,-0.91357421875,-0.6240234375,-0.662109375,0.7412109375,13.6875,-22.375,-77.0
0,34,32,44,73,130,194,133,31,0.13311767578125,0.13409423828125,0.35205078125,-0.916748046875,-0.65185546875,-0.6357421875,0.765625,10.4375,-38.6875,-90.0
0,34,34,41,68,117,179,109,30,0.1219482421875,0.122802734375,0.35150146484375,-0.9200439453125,-0.58837890625,-0.572265625,0.7431640625,6.125,-53.25,-96.6875
0,34,35,45,56,108,159,121,32,0.11126708984375,0.1092529296875,0.3519287109375,-0.9229736328125,-0.45166015625,-0.505859375,0.72021484375,-4.0625,-60.4375,-96.125
0,33,37,51,59,124,147,118,32,0.10107421875,0.093994140625,0.355224609375,-0.924560546875,-0.345703125,-0.48193359375,0.736328125,-25.875,-63.9375,-94.9375
0,33,45,68,56,113,139,117,29,0.0911865234375,0.07763671875,0.360595703125,-0.92498779296875,-0.27587890625,-0.52490234375,0.74169921875,-39.125,-67.0,-93.8125
0,33,50,77,46,113,145,102,32,0.08233642578125,0.06097412109375,0.36474609375,-0.92547607421875,-0.220703125,-0.54150390625,0.7412109375,-32.75,-70.3125,-87.5625
0,33,51,90,48,106,107,91,32,0.0753173828125,0.04388427734375,0.36578369140625,-0.9266357421875,-0.17041015625,-0.478515625,0.71484375,-18.25,-77.4375,-77.1875
0,33,53,110,51,95,96,58,29,0.07086181640625,0.02716064453125,0.36590576171875,-0.92755126953125,-0.10009765625,-0.44091796875,0.70458984375,-15.5,-79.6875,-60.875
0,35,53,121,48,52,88,55,28,0.068115234375,0.01068115234375,0.36688232421875,-0.927734375,-0.046875,-0.46044921875,0.69384765625,-20.4375,-80.5,-49.6875
0,35,60,136,47,47,73,48,28,0.06756591796875,-0.00506591796875,0.3681640625,-0.92730712890625,-0.0224609375,-0.50537109375,0.6796875,-20.8125,-81.3125,-35.5625
0,35,60,143,49,41,56,42,25,0.06988525390625,-0.01971435546875,0.36865234375,-0.9267578125,-0.00537109375,-0.533203125,0.67431640625,-14.625,-81.8125,-18.1875
0,33,60,157,48,39,46,36,26,0.07525634765625,-0.03302001953125,0.3675537109375,-0.9263916015625,-0.0029296875,-0.50341796875,0.67138671875,-6.5,-83.0625,-0.1875
0,33,57,151,46,37,41,33,25,0.08367919921875,-0.04486083984375,0.3658447265625,-0.92584228515625,0.02734375,-0.4814453125,0.658203125,-2.4375,-81.0625,20.0625
0,33,68,152,42,35,41,52,27,0.09466552734375,-0.05499267578125,0.36480712890625,-0.92462158203125,0.03759765625,-0.4599609375,0.64208984375,-6.375,-77.1875,38.3125
0,28,59,143,41,35,41,52,26,0.10772705078125,-0.0635986328125,0.36553955078125,-0.92236328125,0.033203125,-0.478515625,0.62109375,-15.0,-73.5,52.8125
0,29,58,137,45,36,39,63,28,0.12286376953125,-0.07086181640625,0.3671875,-0.9193115234375,0.0048828125,-0.50634765625,0.61328125,-18.3125,-71.6875,65.875
0,31,63,117,44,39,43,65,27,0.14031982421875,-0.07696533203125,0.3685302734375,-0.915771484375,0.00634765625,-0.50341796875,0.60595703125,-16.125,-70.625,81.0
0,34,62,107,44,44,85,81,31,0.1593017578125,-0.08197021484375,0.36993408203125,-0.91162109375,0.02685546875,-0.462890625,0.60888671875,-18.875,-67.1875,93.3125
0,36,54,99,47,43,109,88,33,0.17889404296875,-0.08612060546875,0.37493896484375,-0.90557861328125,0.01611328125,-0.49658203125,0.59716796875,-34.625,-61.5,101.3125
0,39,59,90,47,44,113,87,32,0.19873046875,-0.08953857421875,0.38201904296875,-0.89813232421875,-0.037109375,-0.57861328125,0.5849609375,-47.0,-57.375,106.1875
0,41,64,87,41,43,124,84,32,0.2193603515625,-0.0924072265625,0.3890380859375,-0.88995361328125,-0.0419921875,-0.68115234375,0.56787109375,-45.875,-56.8125,112.3125
0,40,63,84,45,39,131,84,34,0.2408447265625,-0.09381103515625,0.394775390625,-0.88165283203125,-0.03271484375,-0.73388671875,0.56005859375,-37.0,-52.4375,119.75
0,38,67,116,43,38,126,73,33,0.26190185546875,-0.0931396484375,0.40045166015625,-0.8731689453125,-0.01513671875,-0.72509765625,0.52099609375,-34.0,-40.8125,123.1875
0,39,70,138,42,39,123,59,31,0.28167724609375,-0.0911865234375,0.4091796875,-0.86309814453125,-0.01904296875,-0.7294921875,0.46630859375,-51.375,-27.1875,123.6875
0,37,63,142,40,42,123,58,32,0.29986572265625,-0.0875244140625,0.4200439453125,-0.85205078125,-0.03955078125,-0.80908203125,0.45361328125,-61.4375,-12.375,123.25
0,37,97,203,46,52,239,97,35,0.31671142578125,-0.08184814453125,0.43017578125,-0.8414306640625,-0.0771484375,-0.8310546875,0.45361328125,-54.0,-0.5625,120.125
0,38,100,218,42,51,248,99,33,0.33160400390625,-0.07452392578125,0.43914794921875,-0.8316650390625,-0.08349609375,-0.8173828125,0.396484375,-44.125,10.6875,112.75
0,36,99,204,42,50,247,98,30,0.3446044921875,-0.0662841796875,0.44775390625,-0.8223876953125,-0.115234375,-0.88671875,0.39501953125,-39.375,19.3125,105.6875
0,31,104,193,42,47,243,96,29,0.3538818359375,-0.0572509765625,0.45654296875,-0.81427001953125,-0.13916015625,-0.89794921875,0.40673828125,-26.8125,34.125,92.8125
0,31,111,190,41,47,246,102,29,0.359375,-0.04742431640625,0.46502685546875,-0.80767822265625,-0.11767578125,-0.9267578125,0.40576171875,-20.875,49.125,77.5625
0,30,78,120,35,47,192,110,31,0.361572265625,-0.0362548828125,0.47265625,-0.8028564453125,-0.11376953125,-0.9345703125,0.421875,-11.75,64.625,64.125
0,29,71,88,33,45,181,111,30,0.36041259765625,-0.0230712890625,0.4796142578125,-0.7996826171875,-0.15234375,-0.970703125,0.42431640625,-0.0625,81.125,50.8125
0,29,82,85,33,45,171,111,31,0.356689453125,-0.0076904296875,0.48577880859375,-0.7979736328125,-0.2314453125,-1.04443359375,0.46875,11.5,95.5625,41.375
0,30,80,72,34,45,171,114,31,0.35089111328125,0.01165771484375,0.49005126953125,-0.79791259765625,-0.31884765625,-1.09375,0.47900390625,23.25,113.6875,30.1875
0,29,72,65,36,46,183,119,32,0.34222412109375,0.0325927734375,0.49432373046875,-0.7984619140625,-0.423828125,-1.1171875,0.47412109375,28.1875,128.0,19.625
0,26,73,56,36,34,142,82,27,0.332275390625,0.0546875,0.4974365234375,-0.7994384765625,-0.4892578125,-1.068359375,0.4814453125,36.625,134.4375,15.6875
0,24,73,53,37,35,135,78,27,0.3203125,0.0777587890625,0.4974365234375,-0.80242919921875,-0.53076171875,-1.01025390625,0.47998046875,58.75,137.9375,6.125
0,25,59,52,39,72,138,78,27,0.30523681640625,0.1005859375,0.4937744140625,-0.80804443359375,-0.54931640625,-0.880859375,0.4541015625,82.8125,137.6875,-12.875
0,27,55,53,38,75,131,71,29,0.2855224609375,0.12091064453125,0.48992919921875,-0.81475830078125,-0.53515625,-0.7890625,0.41845703125,85.0625,138.375,-43.5
0,25,54,52,40,81,104,50,29,0.26202392578125,0.13983154296875,0.48614501953125,-0.82183837890625,-0.515625,-0.833984375,0.42626953125,86.5,142.1875,-65.25
0,26,54,57,51,146,96,39,28,0.23651123046875,0.15850830078125,0.4791259765625,-0.83026123046875,-0.55908203125,-0.83154296875,0.421875,106.875,140.8125,-75.125
0,29,51,58,73,168,120,37,29,0.2098388671875,0.17559814453125,0.4693603515625,-0.83953857421875,-0.615234375,-0.732421875,0.4169921875,120.375,131.1875,-85.25
0,30,54,68,238,184,120,33,27,0.182373046875,0.1905517578125,0.46002197265625,-0.84783935546875,-0.61376953125,-0.66796875,0.41162109375,113.8125,124.375,-94.4375
0,30,47,61,249,190,119,31,25,0.154541015625,0.20391845703125,0.452392578125,-0.85430908203125,-0.6015625,-0.68994140625,0.4091796875,99.5,121.4375,-100.1875
0,31,48,63,251,192,118,30,26,0.12841796875,0.2159423828125,0.44415283203125,-0.86004638671875,-0.67578125,-0.7041015625,0.38330078125,97.8125,109.875,-94.625
0,32,59,72,252,160,92,29,25,0.10748291015625,0.227294921875,0.435791015625,-0.86419677734375,-0.75244140625,-0.56884765625,0.40478515625,86.25,84.8125,-85.125
