,channel 1,channel 2,channel 3,channel 4,channel 5,channel 6,channel 7,channel 8,channel 9,channel 10,channel 11,channel 12,channel 13,channel 14,channel 15,channel 16,channel 17,channel 18
0,77,25,31,55,153,57,32,25,0.6141357421875,0.12890625,-0.48382568359375,0.6099853515625,0.97607421875,-0.3291015625,1.0087890625,-3.125,0.4375,0.4375
0,58,26,30,51,144,56,26,26,0.6138916015625,0.12860107421875,-0.48419189453125,0.61004638671875,0.45458984375,-0.44775390625,0.23828125,0.375,0.3125,-0.0625
0,59,30,31,56,167,59,27,29,0.6151123046875,0.1312255859375,-0.48272705078125,0.60943603515625,1.02197265625,-0.31201171875,0.65087890625,2.9375,0.1875,-0.625
0,60,31,31,55,167,59,26,30,0.61590576171875,0.13079833984375,-0.48162841796875,0.6094970703125,0.7265625,-0.40087890625,0.533203125,0.125,5.0,-1.6875
0,53,30,27,53,142,52,25,28,0.61572265625,0.13079833984375,-0.48150634765625,0.60980224609375,0.72705078125,-0.41845703125,0.49560546875,1.3125,-0.75,1.25
0,55,32,25,54,135,49,24,29,0.6156005859375,0.1307373046875,-0.48138427734375,0.61004638671875,0.74169921875,-0.43310546875,0.4921875,1.25,0.75,0.8125
0,63,68,82,111,178,57,31,31,0.6153564453125,0.1304931640625,-0.4813232421875,0.61041259765625,0.75,-0.4404296875,0.50048828125,1.3125,0.6875,1.8125
0,66,73,107,111,156,46,32,31,0.61444091796875,0.13067626953125,-0.48138427734375,0.61126708984375,0.66748046875,-0.4296875,0.40869140625,6.125,-0.75,3.1875
0,69,84,122,110,136,45,35,34,0.61492919921875,0.131103515625,-0.47930908203125,0.6123046875,0.6806640625,-0.3134765625,0.470703125,8.375,7.25,2.9375
0,69,86,160,113,139,46,38,38,0.6171875,0.13275146484375,-0.4764404296875,0.61187744140625,1.17333984375,-0.34033203125,0.9619140625,-3.5,1.6875,0.8125
0,60,109,216,121,148,46,41,39,0.62078857421875,0.1328125,-0.4722900390625,0.61151123046875,1.1552734375,-0.31689453125,1.20361328125,-12.75,2.3125,-0.125
0,51,99,221,73,83,31,39,41,0.62158203125,0.1307373046875,-0.47222900390625,0.611083984375,0.6826171875,-0.41064453125,0.6376953125,-12.5625,0.5625,-0.5
0,46,106,326,108,140,33,38,42,0.61956787109375,0.127685546875,-0.4774169921875,0.60980224609375,0.2978515625,-0.49609375,-0.07958984375,-11.0625,0.5625,-2.3125
0,43,135,363,114,148,34,36,41,0.6168212890625,0.12335205078125,-0.4844970703125,0.60791015625,0.19921875,-0.57421875,-0.31787109375,-14.0625,4.25,-3.875
0,48,164,363,137,159,36,33,36,0.61614990234375,0.11920166015625,-0.48883056640625,0.60589599609375,0.51220703125,-0.57666015625,0.0703125,-17.1875,9.8125,-4.125
0,48,159,359,156,213,52,31,35,0.6187744140625,0.11761474609375,-0.48883056640625,0.60357666015625,0.9921875,-0.47314453125,0.625,-16.9375,12.75,-7.0
0,57,194,542,247,228,59,30,32,0.62518310546875,0.11761474609375,-0.483642578125,0.60113525390625,1.31494140625,-0.322265625,1.2568359375,-20.8125,15.3125,-10.4375
0,83,294,495,347,232,61,36,42,0.6273193359375,0.11419677734375,-0.4840087890625,0.59930419921875,0.4052734375,-0.4873046875,0.22998046875,-10.0,17.375,-17.0
0,114,501,487,346,247,63,39,48,0.63092041015625,0.11175537109375,-0.48291015625,0.5968017578125,0.63525390625,-0.41357421875,0.37353515625,-11.125,23.8125,-17.5625
0,133,513,488,371,273,69,46,55,0.63519287109375,0.10968017578125,-0.481201171875,0.59405517578125,0.74560546875,-0.4267578125,0.533203125,-12.6875,22.5,-19.5
0,149,621,504,371,247,61,48,61,0.6383056640625,0.1087646484375,-0.47955322265625,0.59222412109375,0.7041015625,-0.4619140625,0.5546875,-4.6875,13.125,-18.625
0,149,652,329,358,333,55,49,61,0.64093017578125,0.109130859375,-0.47808837890625,0.59051513671875,0.72509765625,-0.4013671875,0.5478515625,-1.75,8.0625,-16.4375
0,146,660,386,338,344,60,51,63,0.64324951171875,0.108642578125,-0.47735595703125,0.588623046875,0.720703125,-0.39697265625,0.560546875,-8.0625,6.5625,-13.0625
0,131,572,373,356,338,56,49,59,0.643310546875,0.10711669921875,-0.47802734375,0.58837890625,0.21044921875,-0.4072265625,0.087890625,3.375,5.6875,-11.25
0,117,573,409,343,322,50,45,55,0.64276123046875,0.1038818359375,-0.47967529296875,0.588134765625,0.37890625,-0.49609375,0.177734375,-5.1875,7.375,-3.3125
0,97,476,370,343,351,51,43,50,0.6417236328125,0.1031494140625,-0.48065185546875,0.588623046875,0.45068359375,-0.51904296875,0.24853515625,7.0,0.0,-5.1875
0,99,440,333,305,294,75,43,51,0.64288330078125,0.10565185546875,-0.4791259765625,0.588134765625,1.02783203125,-0.3720703125,0.73876953125,3.5625,-1.125,-2.125
0,93,393,242,210,265,72,38,44,0.646240234375,0.10833740234375,-0.47381591796875,0.5882568359375,1.2939453125,-0.2880859375,1.34619140625,-3.375,-2.8125,2.125
0,85,313,221,177,264,78,39,46,0.64666748046875,0.10760498046875,-0.47119140625,0.590087890625,0.62158203125,-0.47998046875,0.64111328125,-4.75,-9.25,8.5625
0,78,287,93,131,267,77,38,48,0.64178466796875,0.10595703125,-0.4759521484375,0.5919189453125,0.248046875,-0.54345703125,0.01318359375,5.125,-15.875,10.4375
0,80,270,74,102,237,82,40,54,0.6356201171875,0.10406494140625,-0.4837646484375,0.592529296875,0.19091796875,-0.5654296875,-0.28955078125,0.875,-17.1875,10.0625
0,80,252,69,92,214,69,64,63,0.63238525390625,0.10357666015625,-0.48858642578125,0.59210205078125,0.58447265625,-0.4775390625,0.203125,-7.25,-15.375,7.0
0,70,230,62,76,204,71,66,72,0.6312255859375,0.10595703125,-0.49114990234375,0.5908203125,0.89111328125,-0.35791015625,0.3935546875,-2.875,-10.8125,3.75
0,79,308,57,68,239,68,65,81,0.6295166015625,0.10565185546875,-0.4930419921875,0.591064453125,0.74462890625,-0.48828125,0.4189453125,-2.25,-6.8125,6.625
0,83,448,54,66,239,75,66,89,0.628173828125,0.106201171875,-0.4930419921875,0.59246826171875,0.7626953125,-0.47119140625,0.44921875,8.5625,-2.125,7.5
0,87,527,59,64,222,82,76,107,0.6270751953125,0.107421875,-0.4918212890625,0.59442138671875,0.7724609375,-0.4326171875,0.4853515625,14.375,0.0,8.125
0,86,521,54,57,217,84,59,124,0.6259765625,0.10845947265625,-0.49005126953125,0.5968017578125,0.73681640625,-0.451171875,0.45703125,18.6875,2.6875,8.0625
0,99,518,55,50,231,83,55,129,0.62359619140625,0.1099853515625,-0.48834228515625,0.6004638671875,0.40283203125,-0.45068359375,0.16455078125,33.5,2.0625,5.375
0,99,472,55,48,200,91,73,126,0.62030029296875,0.11090087890625,-0.48748779296875,0.6043701171875,0.60205078125,-0.58740234375,0.26025390625,31.5,0.8125,10.625
0,106,346,60,46,201,137,82,134,0.6217041015625,0.11572265625,-0.47943115234375,0.60845947265625,1.140625,-0.32080078125,1.11083984375,32.5,1.75,10.25
0,106,173,52,50,211,184,134,187,0.61944580078125,0.11724853515625,-0.4755859375,0.6134033203125,0.4716796875,-0.4990234375,0.41748046875,39.1875,1.0,7.3125
0,113,158,53,51,203,185,161,180,0.6136474609375,0.119140625,-0.47705078125,0.61773681640625,0.14794921875,-0.595703125,-0.2431640625,45.875,-6.6875,6.1875
0,127,177,60,49,190,195,176,184,0.60791015625,0.1226806640625,-0.47894287109375,0.62127685546875,0.29150390625,-0.57861328125,-0.21533203125,46.625,-11.0625,4.1875
0,148,167,63,46,200,212,181,232,0.60626220703125,0.1282958984375,-0.47601318359375,0.62396240234375,0.75927734375,-0.47216796875,0.490234375,40.3125,-10.25,-3.4375
0,162,146,64,49,199,212,197,237,0.6072998046875,0.13543701171875,-0.47021484375,0.6258544921875,1.15576171875,-0.37109375,0.99951171875,33.125,-11.1875,-5.75
0,184,146,65,41,176,198,177,209,0.60992431640625,0.1424560546875,-0.46209716796875,0.6278076171875,1.291015625,-0.2958984375,1.3671875,28.1875,-12.1875,-5.8125
0,191,153,72,73,232,238,178,248,0.61114501953125,0.14886474609375,-0.45599365234375,0.62957763671875,1.02294921875,-0.251953125,1.0478515625,28.4375,-13.5625,-5.25
0,214,163,75,73,230,244,174,288,0.61199951171875,0.1566162109375,-0.453369140625,0.62872314453125,1.1728515625,-0.22802734375,0.78857421875,21.0625,-14.125,-9.125
0,203,202,76,79,290,245,184,271,0.613525390625,0.15972900390625,-0.45196533203125,0.62750244140625,0.7333984375,-0.29541015625,0.5908203125,7.0,-7.25,-15.625
0,198,199,78,80,294,243,195,267,0.61395263671875,0.16168212890625,-0.4530029296875,0.62579345703125,0.7470703125,-0.3564453125,0.52978515625,-1.625,-11.0625,-11.5
0,201,206,79,84,302,227,185,268,0.61474609375,0.1634521484375,-0.45355224609375,0.6241455078125,0.75,-0.3603515625,0.5078125,-0.5625,-6.875,-12.875
0,205,206,83,66,290,206,219,244,0.61517333984375,0.165771484375,-0.453857421875,0.62298583984375,0.74560546875,-0.35986328125,0.5302734375,3.6875,-9.875,-11.625
0,188,168,84,70,289,237,239,220,0.615478515625,0.16827392578125,-0.4544677734375,0.62152099609375,0.75439453125,-0.291015625,0.541015625,-0.25,-12.875,-9.0
0,186,119,87,67,206,224,230,212,0.61614990234375,0.1700439453125,-0.4564208984375,0.61895751953125,0.759765625,-0.2568359375,0.54931640625,-12.5,-15.8125,-8.875
0,180,115,81,66,217,205,224,206,0.6171875,0.169921875,-0.46014404296875,0.61517333984375,0.78515625,-0.25927734375,0.5361328125,-28.3125,-14.375,-7.6875
0,162,100,87,67,219,216,236,196,0.61822509765625,0.1678466796875,-0.465087890625,0.6109619140625,0.77685546875,-0.30859375,0.51220703125,-38.875,-11.5,-5.4375
0,153,89,83,62,172,200,188,187,0.6187744140625,0.1650390625,-0.47052001953125,0.60699462890625,0.76611328125,-0.35986328125,0.466796875,-39.6875,-10.6875,-3.5
0,133,93,82,65,173,150,163,162,0.6185302734375,0.16302490234375,-0.4757080078125,0.603759765625,0.7734375,-0.35888671875,0.47705078125,-33.6875,-14.625,0.3125
0,143,92,78,64,173,167,183,180,0.61798095703125,0.1610107421875,-0.4810791015625,0.6005859375,0.8056640625,-0.40771484375,0.46142578125,-32.3125,-14.3125,-0.1875
0,141,92,77,59,148,173,164,188,0.61761474609375,0.1593017578125,-0.48626708984375,0.59716796875,0.78076171875,-0.388671875,0.44775390625,-32.0625,-15.75,-1.9375
0,137,113,74,57,160,158,144,186,0.61663818359375,0.1585693359375,-0.491455078125,0.59417724609375,0.80615234375,-0.3994140625,0.43212890625,-26.5625,-18.75,-0.75
0,127,154,67,55,158,153,148,179,0.61602783203125,0.15728759765625,-0.49591064453125,0.5914306640625,0.802734375,-0.38671875,0.43359375,-26.5,-14.125,0.5
0,122,177,63,50,173,142,138,181,0.61572265625,0.15618896484375,-0.499755859375,0.58880615234375,0.822265625,-0.400390625,0.43212890625,-23.4375,-11.5,-1.125
0,108,214,61,49,171,118,100,148,0.61553955078125,0.1549072265625,-0.5037841796875,0.58587646484375,0.81640625,-0.38427734375,0.4169921875,-26.125,-11.0,-1.1875
0,112,224,65,53,160,107,100,151,0.61541748046875,0.153076171875,-0.5081787109375,0.58270263671875,0.81396484375,-0.39453125,0.41455078125,-29.875,-10.875,-0.5625
0,109,215,58,51,135,101,95,150,0.61517333984375,0.151123046875,-0.51251220703125,0.57965087890625,0.81494140625,-0.40087890625,0.421875,-30.25,-11.4375,-0.125
0,113,187,57,55,157,115,83,149,0.61505126953125,0.1488037109375,-0.51666259765625,0.57666015625,0.81298828125,-0.43994140625,0.4140625,-29.5625,-9.3125,-1.0
0,113,155,52,55,140,116,80,139,0.61492919921875,0.146728515625,-0.52032470703125,0.5740966796875,0.806640625,-0.44091796875,0.39794921875,-25.75,-7.75,-0.6875
0,108,90,59,54,138,108,74,128,0.61474609375,0.1448974609375,-0.52325439453125,0.572021484375,0.8076171875,-0.42919921875,0.4052734375,-21.625,-6.4375,0.5
0,98,69,60,57,139,117,93,114,0.6143798828125,0.14324951171875,-0.5262451171875,0.570068359375,0.81884765625,-0.4130859375,0.38916015625,-21.1875,-6.875,2.5
0,82,67,60,60,200,112,93,93,0.61419677734375,0.14117431640625,-0.52935791015625,0.56793212890625,0.81396484375,-0.4248046875,0.39306640625,-23.75,-5.875,2.1875
0,76,70,64,60,197,96,95,83,0.61431884765625,0.1385498046875,-0.53204345703125,0.56591796875,0.79736328125,-0.45947265625,0.3994140625,-23.5625,-2.9375,0.6875
0,81,73,67,58,199,99,96,67,0.61431884765625,0.13616943359375,-0.534423828125,0.56427001953125,0.79150390625,-0.458984375,0.37548828125,-20.0,-1.5625,1.3125
0,81,74,61,60,202,100,96,65,0.61444091796875,0.1341552734375,-0.53656005859375,0.5626220703125,0.79736328125,-0.45703125,0.38037109375,-18.375,-2.0,0.5
0,80,81,61,56,196,78,72,55,0.61468505859375,0.13250732421875,-0.5384521484375,0.5609130859375,0.7958984375,-0.4609375,0.388671875,-17.1875,-2.5625,-1.75
0,86,77,65,51,117,72,72,54,0.61468505859375,0.13134765625,-0.54010009765625,0.5595703125,0.7958984375,-0.45947265625,0.3916015625,-13.25,-4.1875,-1.4375
0,86,76,61,56,92,61,64,50,0.6143798828125,0.13079833984375,-0.5416259765625,0.55859375,0.8056640625,-0.43359375,0.3896484375,-10.3125,-5.8125,0.75
0,74,76,57,64,83,54,60,35,0.6141357421875,0.13006591796875,-0.5430908203125,0.5576171875,0.810546875,-0.4306640625,0.37646484375,-10.5625,-4.4375,1.5625
0,77,80,58,89,105,52,54,35,0.61419677734375,0.129150390625,-0.54425048828125,0.55657958984375,0.8154296875,-0.4384765625,0.37353515625,-10.3125,-1.75,0.4375
0,74,70,59,104,106,51,56,33,0.6142578125,0.12774658203125,-0.54547119140625,0.55572509765625,0.7998046875,-0.455078125,0.34765625,-10.8125,0.5625,1.3125
0,69,70,52,122,131,55,62,32,0.614501953125,0.126953125,-0.5465087890625,0.55462646484375,0.802734375,-0.45947265625,0.3564453125,-9.125,-0.4375,-2.3125
0,60,83,62,159,150,56,66,34,0.6143798828125,0.1265869140625,-0.54742431640625,0.55389404296875,0.80517578125,-0.47998046875,0.3427734375,-5.0,-1.9375,-2.125
0,66,90,67,179,158,52,67,35,0.6142578125,0.1268310546875,-0.54791259765625,0.55352783203125,0.82470703125,-0.47265625,0.33642578125,-0.1875,-1.0,-2.125
0,60,86,70,176,139,47,65,36,0.61456298828125,0.1268310546875,-0.54833984375,0.55267333984375,0.833984375,-0.47802734375,0.3203125,-2.0,1.875,-4.75
0,81,101,69,191,159,51,61,36,0.61553955078125,0.126708984375,-0.54852294921875,0.551513671875,0.82470703125,-0.470703125,0.341796875,-3.9375,3.6875,-7.6875
0,82,109,108,292,234,53,50,36,0.61663818359375,0.12750244140625,-0.5477294921875,0.55084228515625,0.81591796875,-0.43408203125,0.38720703125,1.125,2.125,-8.25
0,84,101,246,299,236,51,45,34,0.617919921875,0.12689208984375,-0.54742431640625,0.54986572265625,0.83544921875,-0.52001953125,0.3017578125,-1.0625,10.4375,-9.5
0,79,102,276,308,251,52,44,32,0.61944580078125,0.1268310546875,-0.54681396484375,0.54876708984375,0.802734375,-0.4814453125,0.34228515625,-1.0625,7.75,-11.625
0,77,105,331,322,260,57,46,31,0.6207275390625,0.12890625,-0.5452880859375,0.54833984375,0.837890625,-0.35498046875,0.39892578125,6.8125,1.25,-7.625
0,52,97,424,391,316,59,49,36,0.6224365234375,0.12811279296875,-0.54473876953125,0.54718017578125,0.802734375,-0.42138671875,0.3857421875,-6.625,7.875,-6.9375
0,51,97,424,360,292,59,51,38,0.62310791015625,0.12921142578125,-0.543212890625,0.547607421875,0.85546875,-0.38720703125,0.39599609375,7.4375,4.25,-1.25
0,49,94,372,369,298,59,50,38,0.62445068359375,0.12774658203125,-0.54254150390625,0.547119140625,0.79150390625,-0.43017578125,0.35595703125,-5.1875,11.3125,-2.6875
0,45,91,396,430,307,60,49,38,0.62554931640625,0.126708984375,-0.54193115234375,0.5467529296875,0.8134765625,-0.43505859375,0.37841796875,-3.5,8.5,-2.0625
0,52,107,394,577,342,60,48,40,0.62701416015625,0.12591552734375,-0.54132080078125,0.54583740234375,0.82275390625,-0.45263671875,0.376953125,-4.3125,9.125,-6.9375
0,58,107,424,608,360,65,50,36,0.62982177734375,0.12548828125,-0.54052734375,0.54345703125,0.869140625,-0.4892578125,0.3095703125,-4.5625,16.5,-18.25
0,65,158,624,638,384,65,48,39,0.6339111328125,0.12347412109375,-0.5399169921875,0.539794921875,0.80029296875,-0.50146484375,0.32763671875,-16.0,21.4375,-25.25
0,79,250,657,660,389,69,55,45,0.63787841796875,0.1239013671875,-0.5380859375,0.536865234375,0.80078125,-0.4287109375,0.416015625,-5.0625,13.5,-26.5
0,113,273,646,688,392,74,62,59,0.6417236328125,0.12396240234375,-0.5361328125,0.5341796875,0.8369140625,-0.38525390625,0.41552734375,-6.4375,16.1875,-21.0
0,114,283,639,603,365,72,60,61,0.644775390625,0.123779296875,-0.53387451171875,0.5328369140625,0.81005859375,-0.32275390625,0.421875,-3.3125,15.5,-10.75
0,113,287,570,606,332,72,60,62,0.64739990234375,0.12237548828125,-0.53179931640625,0.53204345703125,0.80224609375,-0.33203125,0.43798828125,-6.3125,16.875,-4.25
0,107,266,355,555,272,69,56,59,0.64947509765625,0.11834716796875,-0.5313720703125,0.53082275390625,0.8388671875,-0.45751953125,0.35107421875,-15.8125,23.4375,-0.9375
0,97,184,280,515,248,172,56,54,0.650390625,0.1142578125,-0.531005859375,0.53094482421875,0.72705078125,-0.46044921875,0.41064453125,-12.9375,13.8125,4.875
0,54,144,245,412,208,182,80,42,0.64990234375,0.113037109375,-0.53057861328125,0.5322265625,0.78125,-0.4873046875,0.40234375,3.25,4.3125,4.875
0,49,113,191,348,193,214,96,38,0.64825439453125,0.11163330078125,-0.53094482421875,0.53424072265625,0.76513671875,-0.52587890625,0.380859375,4.5625,-0.1875,9.75
0,57,105,160,161,91,284,149,40,0.64520263671875,0.11151123046875,-0.53033447265625,0.53851318359375,0.75,-0.4970703125,0.419921875,18.25,-6.0,19.625
0,62,103,91,132,73,313,166,43,0.640380859375,0.11309814453125,-0.53021240234375,0.54400634765625,0.76806640625,-0.47021484375,0.431640625,26.4375,-17.375,27.125
0,68,122,71,92,65,348,215,45,0.63616943359375,0.115966796875,-0.53021240234375,0.54833984375,0.8017578125,-0.37939453125,0.44091796875,24.0,-20.9375,23.375
0,74,132,60,69,61,352,217,45,0.63409423828125,0.1177978515625,-0.53009033203125,0.55047607421875,0.82470703125,-0.38671875,0.419921875,13.1875,-10.1875,11.875
0,71,133,58,65,59,336,213,56,0.63409423828125,0.11883544921875,-0.529052734375,0.55126953125,0.814453125,-0.4482421875,0.4189453125,9.4375,0.8125,-1.3125
0,68,126,47,52,49,312,199,52,0.63433837890625,0.12005615234375,-0.52752685546875,0.55218505859375,0.791015625,-0.49853515625,0.40625,14.1875,3.375,-6.4375
0,77,113,46,54,48,289,192,52,0.63385009765625,0.12225341796875,-0.52606201171875,0.55364990234375,0.8125,-0.47998046875,0.4189453125,18.875,-2.0,-3.1875
0,106,106,49,50,44,208,150,52,0.63330078125,0.12548828125,-0.52459716796875,0.554931640625,0.81396484375,-0.42431640625,0.4296875,20.0625,-6.1875,-4.3125
0,128,96,49,45,44,205,146,50,0.63287353515625,0.1292724609375,-0.52294921875,0.55609130859375,0.8115234375,-0.3740234375,0.439453125,21.0,-7.5625,-4.1875
0,134,94,51,42,52,230,161,45,0.632568359375,0.131591796875,-0.5218505859375,0.55694580078125,0.79736328125,-0.36962890625,0.4453125,12.375,-5.375,-1.5625
0,132,97,52,43,59,228,175,48,0.6324462890625,0.13299560546875,-0.5213623046875,0.55718994140625,0.79541015625,-0.396484375,0.4462890625,6.5,-4.75,-2.75
0,158,119,66,52,66,259,230,94,0.6319580078125,0.135009765625,-0.52081298828125,0.5577392578125,0.8037109375,-0.43359375,0.4326171875,11.1875,-6.0,-4.3125
0,149,113,71,50,67,259,230,102,0.63067626953125,0.13775634765625,-0.52008056640625,0.5592041015625,0.79833984375,-0.4052734375,0.4140625,17.625,-9.0,0.3125
0,138,113,71,53,70,271,243,131,0.62908935546875,0.1402587890625,-0.51983642578125,0.5606689453125,0.82080078125,-0.373046875,0.423828125,14.375,-10.8125,4.875
0,157,109,70,52,78,287,280,151,0.62823486328125,0.14276123046875,-0.51947021484375,0.561279296875,0.83203125,-0.3779296875,0.41845703125,11.6875,-8.125,-0.875
0,169,112,69,50,100,265,311,196,0.62738037109375,0.14483642578125,-0.5194091796875,0.561767578125,0.8212890625,-0.39404296875,0.40380859375,10.1875,-7.75,-0.9375
0,160,92,54,39,102,241,427,205,0.6260986328125,0.14654541015625,-0.51971435546875,0.5625,0.7861328125,-0.40576171875,0.4345703125,7.875,-11.5625,0.9375
0,161,86,48,43,110,271,437,245,0.62457275390625,0.148193359375,-0.52008056640625,0.56341552734375,0.82177734375,-0.4091796875,0.42822265625,8.5625,-11.0625,3.125
0,181,91,54,44,126,257,446,273,0.6234130859375,0.1497802734375,-0.52044677734375,0.56390380859375,0.82568359375,-0.36767578125,0.40234375,6.4375,-8.5,3.3125
0,174,106,55,45,127,231,453,302,0.6226806640625,0.1510009765625,-0.52117919921875,0.563720703125,0.83203125,-0.37939453125,0.39501953125,1.625,-7.875,0.0
0,209,129,63,50,122,237,444,302,0.62213134765625,0.15155029296875,-0.52215576171875,0.563232421875,0.8203125,-0.4013671875,0.3994140625,-1.5625,-6.75,-0.875
0,251,139,69,50,119,248,340,315,0.62109375,0.15216064453125,-0.5228271484375,0.56365966796875,0.83154296875,-0.4453125,0.38134765625,4.1875,-5.4375,1.5
0,252,135,70,52,115,215,348,294,0.620361328125,0.15338134765625,-0.52276611328125,0.56414794921875,0.8203125,-0.39697265625,0.38623046875,6.6875,-4.4375,0.4375
0,239,139,67,50,106,222,374,274,0.62042236328125,0.1539306640625,-0.522705078125,0.56396484375,0.84326171875,-0.37744140625,0.3759765625,1.875,0.875,-0.625
0,236,130,70,55,104,211,419,254,0.6207275390625,0.154296875,-0.52227783203125,0.56396484375,0.83984375,-0.40380859375,0.37841796875,3.375,3.125,-2.5
0,250,131,77,54,90,197,436,285,0.62078857421875,0.1546630859375,-0.5216064453125,0.564453125,0.83251953125,-0.404296875,0.3818359375,5.875,3.875,-0.125
0,250,144,82,56,93,183,413,354,0.62060546875,0.15545654296875,-0.52032470703125,0.56561279296875,0.83447265625,-0.39404296875,0.37841796875,11.25,4.75,1.5
0,275,172,91,62,145,170,410,373,0.62054443359375,0.15625,-0.51824951171875,0.56732177734375,0.83203125,-0.3984375,0.38720703125,15.6875,7.5625,2.25
0,290,239,105,69,166,153,377,381,0.62091064453125,0.15618896484375,-0.51556396484375,0.5693359375,0.8330078125,-0.4169921875,0.3876953125,15.5,15.0625,2.5625
0,292,254,116,83,163,139,282,368,0.62158203125,0.15557861328125,-0.5120849609375,0.57196044921875,0.8154296875,-0.43212890625,0.38671875,18.75,21.125,3.6875
0,249,259,122,100,162,124,206,327,0.62213134765625,0.15557861328125,-0.50762939453125,0.5753173828125,0.84765625,-0.42041015625,0.373046875,26.4375,25.1875,5.625
0,206,280,161,142,163,100,191,215,0.622802734375,0.15643310546875,-0.50213623046875,0.57916259765625,0.83203125,-0.35546875,0.4296875,31.3125,23.625,6.625
0,182,275,194,162,124,83,144,162,0.62396240234375,0.1568603515625,-0.49737548828125,0.58197021484375,0.814453125,-0.32763671875,0.43603515625,23.0,23.0625,4.0
0,157,218,207,174,85,65,96,102,0.62518310546875,0.1566162109375,-0.49273681640625,0.5845947265625,0.798828125,-0.37109375,0.40771484375,22.125,26.25,2.4375
0,144,204,265,224,134,73,82,89,0.62677001953125,0.15716552734375,-0.48712158203125,0.58746337890625,0.8095703125,-0.333984375,0.45751953125,26.6875,26.9375,1.0
0,141,180,287,229,139,65,70,68,0.62738037109375,0.15765380859375,-0.48260498046875,0.59039306640625,0.78515625,-0.3486328125,0.44873046875,24.6875,20.625,4.1875
0,123,124,285,238,161,57,53,48,0.62847900390625,0.157470703125,-0.47686767578125,0.593994140625,0.80859375,-0.32177734375,0.5400390625,24.8125,25.6875,7.6875
0,119,114,355,252,167,54,51,49,0.62969970703125,0.1558837890625,-0.47235107421875,0.59661865234375,0.7431640625,-0.27197265625,0.55126953125,11.0,23.3125,9.625
0,110,111,366,255,165,53,53,45,0.6312255859375,0.15313720703125,-0.47015380859375,0.5975341796875,0.71484375,-0.3916015625,0.55810546875,-1.875,17.5,0.875
0,110,100,329,214,135,41,50,48,0.6329345703125,0.15057373046875,-0.46856689453125,0.59759521484375,0.69873046875,-0.44189453125,0.53662109375,-3.0,15.5,-6.0625
0,109,98,312,308,151,38,51,45,0.6336669921875,0.15087890625,-0.46612548828125,0.5986328125,0.6943359375,-0.38916015625,0.57666015625,11.0,4.4375,-4.875
0,109,91,319,354,147,40,49,46,0.63409423828125,0.1522216796875,-0.4649658203125,0.5987548828125,0.74169921875,-0.341796875,0.56201171875,6.9375,-2.4375,-5.25
0,72,71,234,362,190,55,46,38,0.63525390625,0.15216064453125,-0.46539306640625,0.59722900390625,0.787109375,-0.36181640625,0.5419921875,-7.5625,-0.4375,-8.625
0,64,62,212,359,207,62,44,35,0.6370849609375,0.1513671875,-0.46453857421875,0.59613037109375,0.7822265625,-0.3095703125,0.51318359375,-6.1875,10.5,-5.8125
0,67,55,207,370,223,61,35,29,0.63873291015625,0.1500244140625,-0.46551513671875,0.59393310546875,0.7724609375,-0.3603515625,0.49169921875,-15.0,5.1875,-9.25
0,65,53,245,306,225,63,35,29,0.6405029296875,0.14874267578125,-0.46624755859375,0.591796875,0.73779296875,-0.4306640625,0.556640625,-12.5,1.25,-14.5
0,65,49,218,236,229,68,35,28,0.64080810546875,0.149169921875,-0.46673583984375,0.59100341796875,0.76904296875,-0.44873046875,0.49951171875,1.1875,-2.25,-9.5
0,63,43,196,215,196,60,33,29,0.640869140625,0.1512451171875,-0.46514892578125,0.59161376953125,0.73046875,-0.35986328125,0.5732421875,13.3125,-5.1875,-6.3125
0,65,42,198,221,190,58,34,30,0.640625,0.15435791015625,-0.46356201171875,0.59228515625,0.751953125,-0.3203125,0.55029296875,16.875,-7.125,-5.125
0,62,43,201,202,169,59,37,31,0.64080810546875,0.1558837890625,-0.46319580078125,0.59197998046875,0.79736328125,-0.341796875,0.52294921875,5.5625,-3.125,-5.4375
0,79,40,133,197,153,80,70,36,0.6405029296875,0.1571044921875,-0.46258544921875,0.59246826171875,0.7734375,-0.35693359375,0.54150390625,8.0,-3.3125,-1.5625
0,80,44,123,183,125,85,85,38,0.6387939453125,0.1593017578125,-0.46142578125,0.59466552734375,0.7998046875,-0.39111328125,0.49072265625,21.6875,-3.1875,4.875
0,84,48,130,170,109,89,89,38,0.63653564453125,0.162353515625,-0.46026611328125,0.59710693359375,0.77001953125,-0.34033203125,0.47314453125,24.75,-7.8125,7.5
0,82,48,106,148,88,89,88,37,0.6331787109375,0.16656494140625,-0.458740234375,0.6007080078125,0.7890625,-0.35595703125,0.49462890625,34.625,-12.4375,11.375
0,82,48,98,141,86,110,115,38,0.63006591796875,0.1705322265625,-0.4573974609375,0.6038818359375,0.78955078125,-0.37890625,0.47119140625,33.0625,-10.75,8.4375
0,103,56,115,114,81,160,126,39,0.62701416015625,0.17510986328125,-0.4552001953125,0.60736083984375,0.7880859375,-0.35107421875,0.48046875,37.5625,-9.9375,8.375
0,103,55,111,111,88,169,132,35,0.6240234375,0.18060302734375,-0.4522705078125,0.61102294921875,0.77880859375,-0.3271484375,0.5107421875,42.9375,-12.1875,5.75
0,110,62,102,94,96,207,178,41,0.620849609375,0.18621826171875,-0.44940185546875,0.61468505859375,0.78271484375,-0.32080078125,0.53125,42.625,-14.25,6.6875
0,113,87,101,91,98,234,208,48,0.617919921875,0.19244384765625,-0.44573974609375,0.618408203125,0.77783203125,-0.275390625,0.57958984375,45.3125,-15.8125,5.625
0,131,94,93,88,95,256,221,51,0.6141357421875,0.19793701171875,-0.44293212890625,0.6224365234375,0.79345703125,-0.34130859375,0.5078125,45.4375,-13.4375,8.8125
0,113,103,74,86,96,290,247,50,0.61053466796875,0.20330810546875,-0.43988037109375,0.62640380859375,0.7861328125,-0.27490234375,0.51220703125,43.25,-12.5,10.9375
0,138,135,77,80,94,353,309,66,0.60894775390625,0.2076416015625,-0.437255859375,0.62835693359375,0.8125,-0.22412109375,0.49853515625,29.1875,-5.625,3.125
0,192,166,87,82,89,376,342,175,0.60882568359375,0.20965576171875,-0.43585205078125,0.6287841796875,0.79541015625,-0.2705078125,0.54052734375,12.375,-2.625,-3.4375
0,235,174,88,84,99,429,375,185,0.60845947265625,0.21051025390625,-0.43548583984375,0.62908935546875,0.77294921875,-0.322265625,0.5712890625,5.6875,-5.375,-2.5625
0,245,190,87,81,95,425,395,257,0.60791015625,0.21173095703125,-0.4349365234375,0.62957763671875,0.783203125,-0.2919921875,0.5361328125,7.9375,-3.8125,-0.25
0,253,192,92,75,100,503,428,292,0.60772705078125,0.213134765625,-0.43414306640625,0.6298828125,0.8310546875,-0.23095703125,0.4619140625,8.125,2.75,1.1875
0,242,192,91,74,94,488,408,353,0.6083984375,0.21331787109375,-0.4329833984375,0.62994384765625,0.82421875,-0.20556640625,0.47021484375,2.375,9.75,0.75
0,219,218,94,86,93,495,500,427,0.6090087890625,0.21240234375,-0.43206787109375,0.63031005859375,0.8193359375,-0.2666015625,0.4697265625,0.9375,12.9375,1.875
0,215,261,97,82,79,447,479,441,0.60968017578125,0.21142578125,-0.4305419921875,0.6309814453125,0.779296875,-0.2529296875,0.5146484375,1.9375,12.375,2.25
0,229,280,110,90,93,481,483,492,0.61004638671875,0.21051025390625,-0.4298095703125,0.6314697265625,0.81005859375,-0.259765625,0.51416015625,-0.125,9.6875,3.6875
0,225,288,115,92,91,418,511,501,0.61029052734375,0.20965576171875,-0.4283447265625,0.63250732421875,0.79833984375,-0.26171875,0.525390625,3.875,11.4375,4.375
0,292,300,127,100,102,451,531,573,0.6094970703125,0.20941162109375,-0.4267578125,0.6343994140625,0.7470703125,-0.251953125,0.55712890625,9.0,4.8125,9.375
0,387,281,122,88,103,417,508,549,0.608642578125,0.20953369140625,-0.4251708984375,0.63629150390625,0.76171875,-0.2724609375,0.57470703125,10.75,2.875,7.9375
0,381,272,117,93,105,425,528,547,0.60845947265625,0.20867919921875,-0.42413330078125,0.63739013671875,0.7626953125,-0.29150390625,0.55419921875,4.0,6.8125,4.375
0,396,253,108,85,93,383,506,485,0.60845947265625,0.207763671875,-0.42333984375,0.63824462890625,0.7490234375,-0.34814453125,0.56103515625,3.875,5.5,0.5625
0,411,259,96,78,83,341,442,464,0.60748291015625,0.20916748046875,-0.4217529296875,0.63970947265625,0.775390625,-0.29052734375,0.55126953125,15.625,-0.25,2.8125
0,379,239,80,76,101,287,416,324,0.60626220703125,0.21099853515625,-0.4202880859375,0.6412353515625,0.77001953125,-0.24267578125,0.572265625,15.0,-4.0625,5.6875
0,270,220,68,76,102,273,289,222,0.605712890625,0.2115478515625,-0.418212890625,0.6429443359375,0.7734375,-0.22119140625,0.6025390625,11.125,3.4375,7.4375
0,251,167,60,80,115,295,275,202,0.6053466796875,0.21075439453125,-0.4169921875,0.64434814453125,0.7744140625,-0.20654296875,0.59130859375,1.75,6.375,10.625
0,195,148,53,89,121,338,321,179,0.6053466796875,0.2080078125,-0.417236328125,0.6451416015625,0.751953125,-0.259765625,0.54052734375,-8.9375,10.5625,10.5
0,165,127,52,94,124,358,342,167,0.604736328125,0.20574951171875,-0.41754150390625,0.64617919921875,0.73681640625,-0.35205078125,0.5849609375,-3.875,4.8125,7.375
0,131,114,55,91,103,335,328,141,0.603271484375,0.2052001953125,-0.41796875,0.6474609375,0.7138671875,-0.33447265625,0.57763671875,2.6875,-4.5,8.4375
0,129,109,54,124,104,334,323,135,0.6024169921875,0.2059326171875,-0.41864013671875,0.6475830078125,0.7421875,-0.3046875,0.5751953125,1.5,-8.6875,1.5625
0,123,111,59,139,97,301,293,116,0.602294921875,0.20623779296875,-0.41949462890625,0.64703369140625,0.78076171875,-0.3017578125,0.5615234375,-3.125,-4.6875,-1.5
0,122,111,57,134,103,261,254,90,0.60186767578125,0.20672607421875,-0.42047119140625,0.64666748046875,0.7958984375,-0.3154296875,0.521484375,-0.875,-3.5,0.0
0,102,93,58,184,128,207,226,89,0.6014404296875,0.2073974609375,-0.420654296875,0.646728515625,0.77294921875,-0.30029296875,0.548828125,2.875,-3.5,-0.4375
0,106,85,49,195,140,187,205,87,0.6016845703125,0.208251953125,-0.4208984375,0.64605712890625,0.7568359375,-0.2822265625,0.560546875,-0.5,-5.125,-4.375
0,99,83,55,226,151,183,200,86,0.60211181640625,0.20867919921875,-0.4222412109375,0.6446533203125,0.79248046875,-0.30029296875,0.52001953125,-6.4375,-4.5,-6.0625
0,111,73,54,216,157,184,176,85,0.602783203125,0.209228515625,-0.42236328125,0.64373779296875,0.79736328125,-0.294921875,0.49462890625,-0.4375,2.3125,-6.6875
0,108,68,57,221,158,142,140,77,0.6033935546875,0.2099609375,-0.4215087890625,0.64349365234375,0.810546875,-0.26953125,0.50390625,4.8125,5.5625,-4.25
0,111,58,57,187,148,116,96,49,0.60400390625,0.2099609375,-0.4207763671875,0.6434326171875,0.74267578125,-0.2958984375,0.58203125,1.625,0.9375,-4.5
0,103,54,59,185,136,113,96,44,0.60430908203125,0.21099853515625,-0.420166015625,0.6431884765625,0.744140625,-0.2470703125,0.57958984375,2.75,-3.6875,-3.75
0,104,60,52,123,121,122,108,42,0.60498046875,0.2110595703125,-0.420654296875,0.6422119140625,0.7939453125,-0.25048828125,0.53369140625,-5.375,0.1875,-3.375
0,86,61,45,131,110,119,118,43,0.6058349609375,0.21051025390625,-0.42071533203125,0.6416015625,0.7958984375,-0.26708984375,0.52783203125,-5.0,5.4375,-2.5
0,76,57,42,132,100,115,119,41,0.6064453125,0.20977783203125,-0.42047119140625,0.64141845703125,0.76611328125,-0.2841796875,0.5654296875,-3.0,3.8125,-1.625
0,68,54,40,151,86,113,108,40,0.606201171875,0.20977783203125,-0.42022705078125,0.6417236328125,0.7548828125,-0.271484375,0.5634765625,1.375,-0.5625,1.8125
0,64,55,36,147,97,111,105,39,0.60638427734375,0.2095947265625,-0.420654296875,0.641357421875,0.79833984375,-0.23779296875,0.53076171875,-4.75,1.1875,2.0625
0,60,57,40,179,106,97,86,36,0.607666015625,0.20770263671875,-0.4217529296875,0.6400146484375,0.80029296875,-0.244140625,0.5048828125,-16.3125,8.375,-0.5625
0,68,144,43,173,108,64,64,27,0.60968017578125,0.20404052734375,-0.42333984375,0.6383056640625,0.80078125,-0.2880859375,0.52294921875,-24.5,13.6875,-1.9375
0,64,158,46,184,124,63,40,30,0.61114501953125,0.20025634765625,-0.4246826171875,0.63714599609375,0.74462890625,-0.33447265625,0.55078125,-21.0625,10.625,-1.5
0,61,182,45,171,127,54,37,30,0.612060546875,0.19781494140625,-0.42529296875,0.63665771484375,0.7392578125,-0.2734375,0.57763671875,-14.375,6.0,2.25
0,67,226,51,170,123,48,35,30,0.61346435546875,0.1954345703125,-0.4268798828125,0.635009765625,0.76171875,-0.22509765625,0.544921875,-22.6875,5.0,0.8125
0,82,229,47,146,139,43,30,32,0.616455078125,0.1910400390625,-0.42987060546875,0.63134765625,0.77734375,-0.24658203125,0.54296875,-40.5,9.625,-6.375
0,82,203,46,148,141,41,30,32,0.619873046875,0.18450927734375,-0.43408203125,0.62701416015625,0.76611328125,-0.3232421875,0.52783203125,-52.0,13.6875,-7.4375
0,84,197,54,171,141,37,26,31,0.622314453125,0.1785888671875,-0.43768310546875,0.62384033203125,0.74072265625,-0.380859375,0.5625,-42.5,9.8125,-5.25
0,86,219,72,161,138,37,25,30,0.62310791015625,0.17547607421875,-0.43927001953125,0.62286376953125,0.74755859375,-0.33935546875,0.55859375,-19.75,5.1875,2.125
0,84,176,77,205,151,42,31,30,0.6229248046875,0.1729736328125,-0.44024658203125,0.623046875,0.77734375,-0.32861328125,0.544921875,-11.875,6.0,9.1875
0,73,173,86,198,127,39,31,27,0.62310791015625,0.170654296875,-0.44049072265625,0.62335205078125,0.7626953125,-0.27978515625,0.54150390625,-10.4375,8.625,9.5
0,62,153,103,211,134,50,34,27,0.6239013671875,0.166748046875,-0.44171142578125,0.62274169921875,0.77734375,-0.3125,0.5302734375,-21.5,12.9375,8.1875
0,63,147,114,189,117,46,35,26,0.62518310546875,0.1619873046875,-0.44293212890625,0.621826171875,0.73046875,-0.3203125,0.56298828125,-26.1875,13.6875,6.0
0,63,71,159,198,123,50,34,25,0.626220703125,0.1561279296875,-0.44537353515625,0.6204833984375,0.7490234375,-0.388671875,0.5478515625,-32.5625,13.75,6.9375
0,62,88,248,149,119,54,30,27,0.62762451171875,0.15057373046875,-0.44775390625,0.6187744140625,0.73486328125,-0.38427734375,0.54296875,-33.1875,13.0,4.0
0,69,118,367,147,123,54,31,26,0.62921142578125,0.14459228515625,-0.4508056640625,0.6163330078125,0.72998046875,-0.40673828125,0.55517578125,-38.5625,11.5625,1.3125
0,75,153,389,124,102,43,27,26,0.630615234375,0.1385498046875,-0.4542236328125,0.61383056640625,0.72265625,-0.44287109375,0.53369140625,-39.0,10.5,0.8125
0,80,167,392,105,101,43,25,28,0.632080078125,0.1328125,-0.45770263671875,0.6109619140625,0.7333984375,-0.41357421875,0.5517578125,-41.0625,8.3125,0.8125
0,81,203,393,95,93,40,25,29,0.6331787109375,0.12811279296875,-0.4605712890625,0.60870361328125,0.71533203125,-0.39794921875,0.59033203125,-35.0,3.8125,1.75
0,84,205,346,91,69,32,26,30,0.63421630859375,0.12347412109375,-0.464111328125,0.60589599609375,0.71484375,-0.40966796875,0.56591796875,-38.125,1.75,0.125
0,85,205,222,97,64,35,29,33,0.63568115234375,0.11981201171875,-0.467041015625,0.602783203125,0.70556640625,-0.384765625,0.55322265625,-34.375,1.75,-3.9375
0,87,299,177,92,64,40,30,36,0.63690185546875,0.116455078125,-0.46990966796875,0.59991455078125,0.7255859375,-0.400390625,0.53076171875,-31.375,1.8125,-3.4375
0,94,323,170,89,68,40,31,34,0.6380615234375,0.11260986328125,-0.4732666015625,0.5968017578125,0.73095703125,-0.4453125,0.537109375,-34.0625,1.125,-4.25
0,95,316,119,83,100,44,33,35,0.63897705078125,0.1085205078125,-0.47723388671875,0.5933837890625,0.7080078125,-0.4755859375,0.509765625,-36.375,-0.9375,-5.3125
0,93,360,108,82,102,40,33,35,0.6390380859375,0.10589599609375,-0.48077392578125,0.5909423828125,0.708984375,-0.48046875,0.50927734375,-26.625,-6.3125,-3.4375
0,96,373,100,66,100,40,33,36,0.63873291015625,0.1044921875,-0.4840087890625,0.58892822265625,0.71337890625,-0.4208984375,0.5625,-23.6875,-12.75,-0.4375
0,101,295,89,64,99,34,32,37,0.63818359375,0.10302734375,-0.4876708984375,0.58673095703125,0.73388671875,-0.404296875,0.5537109375,-26.25,-14.5,1.8125
0,92,278,75,60,98,35,32,36,0.6375732421875,0.1004638671875,-0.492919921875,0.5833740234375,0.7470703125,-0.42041015625,0.45263671875,-35.75,-12.125,1.1875
0,96,346,74,56,58,32,35,40,0.63702392578125,0.09747314453125,-0.4981689453125,0.580078125,0.732421875,-0.43115234375,0.46923828125,-37.625,-12.3125,2.0625
0,107,367,86,42,50,38,38,43,0.6361083984375,0.093994140625,-0.50311279296875,0.57733154296875,0.74658203125,-0.4580078125,0.501953125,-37.625,-12.125,5.75
0,114,359,76,40,50,40,37,41,0.63421630859375,0.0909423828125,-0.5081787109375,0.57550048828125,0.7421875,-0.482421875,0.4814453125,-32.3125,-15.8125,10.5
0,117,377,87,41,51,43,39,40,0.6319580078125,0.08966064453125,-0.51275634765625,0.5740966796875,0.7451171875,-0.4521484375,0.42919921875,-22.375,-18.4375,9.1875
0,116,412,90,50,52,54,52,48,0.630615234375,0.0875244140625,-0.51715087890625,0.57196044921875,0.78857421875,-0.45166015625,0.40673828125,-27.625,-10.5625,7.9375
0,110,366,90,50,51,54,50,51,0.63043212890625,0.0830078125,-0.52178955078125,0.568603515625,0.74755859375,-0.52587890625,0.3837890625,-38.0625,-1.5625,2.0625
0,112,330,84,50,47,56,74,131,0.62969970703125,0.07958984375,-0.52557373046875,0.56646728515625,0.7177734375,-0.59912109375,0.4033203125,-26.625,-4.875,0.0625
0,129,351,97,55,52,64,86,156,0.62744140625,0.078857421875,-0.5281982421875,0.56658935546875,0.7138671875,-0.59716796875,0.416015625,-6.25,-14.5625,4.6875
0,171,341,85,52,52,75,105,186,0.624267578125,0.08074951171875,-0.5296630859375,0.56854248046875,0.6904296875,-0.541015625,0.46484375,9.0,-24.0625,7.9375
0,194,291,82,47,50,73,116,225,0.62005615234375,0.08367919921875,-0.5318603515625,0.57061767578125,0.7431640625,-0.50390625,0.46630859375,9.9375,-32.125,12.5
0,223,266,77,45,49,85,142,268,0.61541748046875,0.08673095703125,-0.53460693359375,0.57257080078125,0.75146484375,-0.5458984375,0.42138671875,10.875,-33.4375,11.9375
0,238,238,80,50,52,85,139,294,0.6112060546875,0.0894775390625,-0.5377197265625,0.57373046875,0.7490234375,-0.5498046875,0.36572265625,8.0,-30.6875,8.375
0,248,190,62,50,48,81,147,308,0.6087646484375,0.09228515625,-0.54052734375,0.57330322265625,0.7392578125,-0.56298828125,0.34814453125,3.75,-24.6875,-4.25
0,218,248,62,51,58,73,136,293,0.607177734375,0.09576416015625,-0.54205322265625,0.57293701171875,0.77099609375,-0.59033203125,0.3486328125,10.875,-19.5,-10.8125
0,219,328,69,67,133,285,177,268,0.6063232421875,0.1004638671875,-0.5421142578125,0.57305908203125,0.75244140625,-0.5859375,0.33203125,21.375,-15.4375,-16.625
0,203,348,79,75,152,315,212,227,0.60614013671875,0.10675048828125,-0.5404052734375,0.57373046875,0.763671875,-0.55322265625,0.29296875,34.75,-9.875,-21.5625
0,185,362,78,164,189,359,220,154,0.60693359375,0.11492919921875,-0.5369873046875,0.57452392578125,0.79345703125,-0.50830078125,0.31640625,45.25,-7.625,-28.6875
0,147,391,80,191,194,364,217,92,0.608154296875,0.124267578125,-0.5296630859375,0.57806396484375,0.79931640625,-0.4365234375,0.39794921875,66.1875,2.0,-23.5625
0,159,376,81,204,199,372,224,89,0.60791015625,0.13275146484375,-0.52166748046875,0.58367919921875,0.8515625,-0.4228515625,0.31396484375,75.875,10.4375,-7.5
0,159,321,83,203,164,263,219,160,0.60711669921875,0.14031982421875,-0.5128173828125,0.59051513671875,0.8828125,-0.3486328125,0.396484375,75.5625,13.0625,4.6875
0,206,472,114,206,150,228,173,171,0.60784912109375,0.1468505859375,-0.50323486328125,0.59637451171875,0.8291015625,-0.31640625,0.6318359375,62.9375,9.5,-1.875
0,210,462,114,145,99,159,158,168,0.609375,0.15057373046875,-0.49945068359375,0.59710693359375,0.70068359375,-0.40966796875,0.52734375,24.375,-1.4375,-18.9375
0,218,449,122,108,94,149,148,170,0.6104736328125,0.15350341796875,-0.499755859375,0.59490966796875,0.7578125,-0.30029296875,0.4833984375,-1.9375,-12.625,-14.6875
0,248,550,161,87,99,127,147,176,0.612548828125,0.154541015625,-0.5006103515625,0.591796875,0.86767578125,-0.2568359375,0.48681640625,-16.0625,-2.9375,-9.8125
0,259,671,189,84,89,99,106,107,0.616455078125,0.15045166015625,-0.50225830078125,0.58740234375,0.8408203125,-0.408203125,0.455078125,-35.75,16.375,-14.4375
0,228,628,181,78,87,79,98,89,0.61932373046875,0.14630126953125,-0.50347900390625,0.5843505859375,0.7978515625,-0.49267578125,0.36572265625,-25.375,20.0625,-12.1875
0,236,690,198,78,88,62,98,90,0.62158203125,0.1455078125,-0.503173828125,0.58245849609375,0.8056640625,-0.30859375,0.43505859375,-11.625,10.0,-6.5
0,235,729,201,78,83,53,97,89,0.62371826171875,0.14385986328125,-0.5040283203125,0.579833984375,0.8271484375,-0.23583984375,0.474609375,-24.3125,5.8125,-0.5625
0,196,730,192,73,56,51,80,72,0.62554931640625,0.13897705078125,-0.50750732421875,0.57598876953125,0.83642578125,-0.3125,0.4931640625,-46.0625,4.9375,3.625
0,187,675,173,132,102,47,60,76,0.62646484375,0.13238525390625,-0.51251220703125,0.57208251953125,0.767578125,-0.3896484375,0.4658203125,-54.0,0.6875,7.125
0,182,686,170,138,117,46,52,76,0.62603759765625,0.12725830078125,-0.5157470703125,0.57080078125,0.7431640625,-0.43505859375,0.44189453125,-32.5,1.3125,12.6875
0,180,740,162,165,194,53,51,77,0.6246337890625,0.12310791015625,-0.518310546875,0.5709228515625,0.76611328125,-0.455078125,0.4287109375,-21.3125,-0.1875,17.375
0,182,717,160,186,201,52,49,75,0.62353515625,0.118896484375,-0.5203857421875,0.5711669921875,0.77880859375,-0.45654296875,0.4189453125,-19.75,3.375,17.625
0,180,717,145,225,226,54,48,76,0.6234130859375,0.11505126953125,-0.522216796875,0.5704345703125,0.7861328125,-0.50732421875,0.330078125,-17.125,10.875,7.5625
0,157,700,141,245,234,55,47,69,0.62530517578125,0.111328125,-0.52294921875,0.568359375,0.76953125,-0.54052734375,0.3447265625,-17.8125,17.875,-7.125
0,165,688,143,308,249,59,51,70,0.62750244140625,0.10821533203125,-0.52325439453125,0.5662841796875,0.7607421875,-0.59814453125,0.32421875,-12.1875,19.5625,-13.4375
0,169,589,131,319,218,52,49,67,0.62890625,0.1087646484375,-0.52081298828125,0.56689453125,0.7548828125,-0.58056640625,0.45263671875,14.0,9.5625,-13.25
0,166,593,125,420,274,61,54,67,0.63043212890625,0.11114501953125,-0.51806640625,0.56719970703125,0.79833984375,-0.49560546875,0.4111328125,19.9375,9.1875,-14.8125
0,161,501,116,462,320,66,53,66,0.63323974609375,0.11376953125,-0.51409912109375,0.56719970703125,0.74853515625,-0.4189453125,0.43896484375,19.9375,13.3125,-19.4375
0,148,490,130,447,319,63,49,59,0.636962890625,0.1160888671875,-0.5098876953125,0.56640625,0.79833984375,-0.39306640625,0.46044921875,15.9375,18.1875,-21.75
0,120,427,160,477,335,61,44,48,0.6405029296875,0.11639404296875,-0.50616455078125,0.56561279296875,0.77197265625,-0.44580078125,0.4521484375,9.375,22.875,-19.25
0,81,434,180,512,345,60,43,44,0.643310546875,0.11761474609375,-0.50146484375,0.56640625,0.75146484375,-0.40625,0.5087890625,18.625,18.8125,-13.0625
0,72,485,257,563,385,70,50,42,0.645263671875,0.11981201171875,-0.49725341796875,0.5673828125,0.78173828125,-0.365234375,0.47607421875,21.5625,14.75,-9.375
0,92,523,354,577,343,65,50,41,0.64697265625,0.12188720703125,-0.49359130859375,0.5682373046875,0.78125,-0.373046875,0.48193359375,19.9375,12.3125,-8.9375
0,106,510,360,600,339,66,49,44,0.64813232421875,0.12176513671875,-0.49072265625,0.56939697265625,0.77490234375,-0.4482421875,0.44921875,14.0625,17.0625,-3.875
0,107,502,350,590,344,78,56,50,0.64788818359375,0.12457275390625,-0.48687744140625,0.5723876953125,0.7158203125,-0.40673828125,0.53466796875,30.8125,2.625,-0.75
0,108,464,349,556,325,79,54,47,0.6468505859375,0.12847900390625,-0.4825439453125,0.5762939453125,0.75634765625,-0.37646484375,0.5400390625,38.625,0.25,4.0625
0,105,524,301,436,236,66,46,44,0.64617919921875,0.13140869140625,-0.4791259765625,0.57928466796875,0.78125,-0.3369140625,0.47509765625,30.1875,5.4375,5.5625
0,88,800,225,432,253,68,45,43,0.64617919921875,0.1319580078125,-0.47674560546875,0.58111572265625,0.7421875,-0.30859375,0.47998046875,12.875,8.6875,7.0
0,75,1087,221,398,249,69,46,39,0.6458740234375,0.1326904296875,-0.4739990234375,0.58349609375,0.7587890625,-0.34130859375,0.5341796875,16.625,7.5625,7.5625
0,71,1108,229,340,209,55,41,31,0.64459228515625,0.13232421875,-0.47198486328125,0.586669921875,0.755859375,-0.43994140625,0.4990234375,17.6875,8.25,12.1875
0,75,1122,214,362,217,56,44,32,0.64117431640625,0.13470458984375,-0.46826171875,0.59283447265625,0.7080078125,-0.42236328125,0.5712890625,40.625,-3.0625,21.5625
0,70,1058,211,368,196,53,41,34,0.635986328125,0.1396484375,-0.464111328125,0.60040283203125,0.7587890625,-0.42138671875,0.509765625,58.5625,-8.625,26.5
0,78,834,153,281,158,48,42,35,0.630859375,0.1458740234375,-0.458740234375,0.60845947265625,0.7626953125,-0.3671875,0.552734375,65.9375,-9.75,26.5
0,76,350,128,282,145,48,66,36,0.6256103515625,0.15167236328125,-0.4544677734375,0.61566162109375,0.73974609375,-0.3857421875,0.55712890625,59.4375,-13.8125,24.75
0,82,260,99,281,144,53,72,39,0.620361328125,0.15716552734375,-0.450927734375,0.62213134765625,0.74169921875,-0.39453125,0.541015625,54.625,-15.25,22.25
0,84,169,94,245,122,59,71,41,0.61480712890625,0.16357421875,-0.447265625,0.628662109375,0.72705078125,-0.39501953125,0.55810546875,58.75,-20.0,20.625
0,85,146,94,198,125,75,82,39,0.609130859375,0.17059326171875,-0.44390869140625,0.63458251953125,0.75830078125,-0.37646484375,0.54541015625,57.9375,-22.4375,19.0625
0,84,149,99,182,122,79,83,38,0.60418701171875,0.17803955078125,-0.43994140625,0.6400146484375,0.78662109375,-0.30322265625,0.52978515625,57.75,-18.375,17.375
0,90,143,93,166,121,78,69,39,0.59954833984375,0.18438720703125,-0.4365234375,0.64495849609375,0.78955078125,-0.3271484375,0.51416015625,52.1875,-15.1875,15.75
0,92,131,83,138,98,82,65,40,0.59576416015625,0.189208984375,-0.43365478515625,0.64898681640625,0.76416015625,-0.3291015625,0.51708984375,41.6875,-11.25,13.5
0,84,130,82,114,105,80,66,39,0.5926513671875,0.19256591796875,-0.431396484375,0.65228271484375,0.7412109375,-0.2890625,0.52978515625,30.0,-8.6875,13.9375
0,107,117,79,110,102,112,94,57,0.5902099609375,0.1954345703125,-0.43011474609375,0.654541015625,0.75732421875,-0.26416015625,0.5546875,19.9375,-10.25,11.9375
0,113,120,79,110,106,143,152,68,0.58782958984375,0.19720458984375,-0.4300537109375,0.65618896484375,0.75732421875,-0.3203125,0.578125,11.9375,-12.0,10.25
0,118,133,81,105,105,214,208,79,0.58575439453125,0.19842529296875,-0.4300537109375,0.65765380859375,0.72265625,-0.35595703125,0.57080078125,10.5625,-10.8125,7.8125
0,124,136,82,126,110,285,224,93,0.58282470703125,0.20074462890625,-0.4290771484375,0.66021728515625,0.736328125,-0.35546875,0.5517578125,21.75,-10.8125,10.5625
0,156,164,82,130,115,319,237,105,0.58026123046875,0.20452880859375,-0.427490234375,0.66229248046875,0.771484375,-0.27880859375,0.56494140625,24.5625,-13.8125,8.625
0,204,178,82,134,112,381,287,118,0.57818603515625,0.20703125,-0.4268798828125,0.66375732421875,0.78173828125,-0.3037109375,0.55078125,15.5,-10.4375,7.1875
0,217,183,81,128,111,503,367,131,0.57659912109375,0.20794677734375,-0.42694091796875,0.664794921875,0.7421875,-0.35546875,0.572265625,7.625,-8.6875,5.3125
0,245,193,80,125,107,506,419,137,0.57489013671875,0.20941162109375,-0.42706298828125,0.66571044921875,0.7294921875,-0.31494140625,0.58251953125,7.3125,-12.375,5.9375
0,276,199,81,113,108,504,442,178,0.57403564453125,0.21063232421875,-0.42840576171875,0.66522216796875,0.80712890625,-0.31201171875,0.55810546875,-2.125,-11.5,1.875
0,282,196,92,115,115,598,522,237,0.5732421875,0.21044921875,-0.43035888671875,0.6646728515625,0.7802734375,-0.36279296875,0.50390625,-6.5625,-5.9375,2.25
0,274,197,95,108,124,581,529,241,0.57244873046875,0.2113037109375,-0.43121337890625,0.66455078125,0.8232421875,-0.2666015625,0.44873046875,-0.0625,-1.25,6.375
0,284,263,108,115,132,497,502,265,0.57293701171875,0.2105712890625,-0.431884765625,0.6639404296875,0.837890625,-0.2314453125,0.453125,-8.8125,7.875,5.5
0,265,267,117,112,157,474,458,319,0.574462890625,0.20770263671875,-0.4326171875,0.66302490234375,0.80517578125,-0.275390625,0.48974609375,-17.6875,15.125,3.3125
0,260,410,163,110,158,442,434,329,0.57611083984375,0.20355224609375,-0.4344482421875,0.6617431640625,0.771484375,-0.32470703125,0.509765625,-25.6875,13.875,2.875
0,347,419,184,105,163,271,334,305,0.57794189453125,0.1986083984375,-0.4368896484375,0.65997314453125,0.75341796875,-0.3720703125,0.51708984375,-30.5,13.75,0.625
0,348,434,189,99,157,226,296,356,0.58013916015625,0.19390869140625,-0.43890380859375,0.65814208984375,0.7607421875,-0.37158203125,0.51904296875,-29.125,15.6875,-1.4375
0,436,420,210,107,161,179,331,477,0.58331298828125,0.1890869140625,-0.4404296875,0.65570068359375,0.7646484375,-0.287109375,0.55029296875,-34.375,17.75,-2.1875
0,456,461,223,114,150,163,323,478,0.5872802734375,0.18328857421875,-0.44317626953125,0.65191650390625,0.77490234375,-0.29052734375,0.5908203125,-47.5625,16.3125,-5.875
0,472,436,210,101,142,147,340,478,0.5914306640625,0.1751708984375,-0.4483642578125,0.6468505859375,0.73583984375,-0.34423828125,0.57861328125,-66.3125,15.3125,-5.5
0,400,436,194,94,123,144,342,468,0.5946044921875,0.16693115234375,-0.4541015625,0.64208984375,0.7138671875,-0.4013671875,0.5771484375,-65.4375,10.1875,-3.125
0,381,494,193,120,177,110,321,429,0.59686279296875,0.16009521484375,-0.45989990234375,0.63763427734375,0.71044921875,-0.4375,0.5244140625,-56.6875,5.5625,-3.625
0,275,509,172,137,179,79,212,268,0.5975341796875,0.15521240234375,-0.46435546875,0.635009765625,0.69970703125,-0.4443359375,0.5146484375,-39.0,0.125,2.0625
0,248,499,166,145,188,73,181,200,0.5968017578125,0.1522216796875,-0.4676513671875,0.63397216796875,0.744140625,-0.41064453125,0.5380859375,-25.0,-5.0,9.8125
0,206,449,151,152,191,70,135,139,0.5970458984375,0.1484375,-0.47198486328125,0.63140869140625,0.76220703125,-0.3095703125,0.4599609375,-38.0625,0.75,10.5
0,238,478,147,155,188,60,108,133,0.6029052734375,0.135986328125,-0.484130859375,0.61932373046875,0.7578125,-0.44677734375,0.47021484375,-73.0,8.6875,-14.9375
0,244,403,152,146,135,61,115,114,0.60589599609375,0.129150390625,-0.4915771484375,0.6119384765625,0.6923828125,-0.5400390625,0.46923828125,-69.0625,-0.6875,-18.125
0,228,448,187,124,114,62,112,101,0.60638427734375,0.1263427734375,-0.4974365234375,0.6072998046875,0.7099609375,-0.57177734375,0.5546875,-42.375,-18.4375,-13.8125
0,223,476,180,120,82,56,106,79,0.60638427734375,0.1246337890625,-0.5029296875,0.6031494140625,0.72412109375,-0.44775390625,0.51953125,-39.0,-20.3125,-6.0625
0,199,504,174,137,91,54,99,79,0.60577392578125,0.1236572265625,-0.5069580078125,0.6005859375,0.77197265625,-0.35546875,0.490234375,-28.6875,-16.0,4.75
0,160,502,179,139,94,48,92,74,0.60711669921875,0.12066650390625,-0.51141357421875,0.59600830078125,0.85302734375,-0.37890625,0.41650390625,-41.6875,0.375,-1.25
0,160,520,173,132,94,49,82,74,0.61029052734375,0.11370849609375,-0.51690673828125,0.58935546875,0.80078125,-0.42529296875,0.43408203125,-66.0625,10.5625,-6.25
0,149,456,117,134,117,56,79,64,0.61212158203125,0.105712890625,-0.52264404296875,0.5838623046875,0.73193359375,-0.515625,0.44091796875,-64.0,7.125,-0.875
0,142,409,119,175,127,60,82,64,0.61248779296875,0.0987548828125,-0.528076171875,0.579833984375,0.75830078125,-0.57275390625,0.37939453125,-51.0625,4.9375,4.375
0,136,358,137,270,159,69,81,59,0.61334228515625,0.09381103515625,-0.53118896484375,0.576904296875,0.75634765625,-0.55029296875,0.361328125,-33.3125,9.4375,0.625
0,124,386,157,286,159,71,80,61,0.61669921875,0.08856201171875,-0.5340576171875,0.57147216796875,0.77294921875,-0.609375,0.25146484375,-37.8125,23.5,-18.25
0,122,410,168,287,162,70,69,59,0.6209716796875,0.0848388671875,-0.53582763671875,0.56573486328125,0.6826171875,-0.642578125,0.3291015625,-31.4375,18.1875,-32.5625
0,140,411,175,313,171,62,55,57,0.623046875,0.08685302734375,-0.53424072265625,0.56463623046875,0.7666015625,-0.54345703125,0.4951171875,6.375,0.5,-20.0
0,145,425,169,316,186,59,53,59,0.624755859375,0.08905029296875,-0.5323486328125,0.564208984375,0.8251953125,-0.48388671875,0.376953125,13.0,8.5,-12.0625
0,144,421,164,298,185,51,50,59,0.62823486328125,0.08868408203125,-0.53106689453125,0.56158447265625,0.7373046875,-0.45068359375,0.3671875,-6.125,17.125,-19.625
0,163,440,149,526,311,61,50,56,0.63330078125,0.0887451171875,-0.529296875,0.55755615234375,0.7880859375,-0.44287109375,0.4140625,-9.625,20.625,-29.125
0,153,415,146,560,336,62,51,55,0.6390380859375,0.08685302734375,-0.52801513671875,0.552490234375,0.78173828125,-0.5263671875,0.35009765625,-16.9375,29.9375,-34.375
0,143,520,159,560,342,63,56,58,0.6429443359375,0.08563232421875,-0.52593994140625,0.55010986328125,0.7060546875,-0.56103515625,0.44873046875,-5.1875,19.25,-25.6875
0,135,599,169,581,354,68,61,57,0.64404296875,0.089111328125,-0.52264404296875,0.55145263671875,0.76513671875,-0.44921875,0.54052734375,23.125,-0.8125,-10.25
0,135,616,160,680,399,74,62,55,0.6461181640625,0.0928955078125,-0.5194091796875,0.55145263671875,0.8291015625,-0.31640625,0.44677734375,18.8125,7.625,-10.125
0,120,651,180,576,326,64,61,59,0.650146484375,0.08935546875,-0.51947021484375,0.5472412109375,0.73388671875,-0.5009765625,0.33837890625,-23.4375,25.1875,-21.6875
0,114,727,240,657,338,80,74,63,0.6527099609375,0.08831787109375,-0.51806640625,0.545654296875,0.74462890625,-0.515625,0.48779296875,-4.5,12.375,-16.25
0,105,667,238,688,343,81,70,59,0.653564453125,0.08978271484375,-0.51593017578125,0.54638671875,0.73193359375,-0.48193359375,0.5,13.4375,2.4375,-8.3125
0,92,601,257,725,358,81,66,53,0.65447998046875,0.0931396484375,-0.5133056640625,0.54718017578125,0.7919921875,-0.3310546875,0.4775390625,18.5,1.625,-4.875
0,85,584,277,789,334,78,64,54,0.656982421875,0.09234619140625,-0.5128173828125,0.5447998046875,0.79638671875,-0.400390625,0.412109375,-9.625,13.3125,-11.9375
0,81,496,264,772,325,78,61,47,0.6595458984375,0.0894775390625,-0.51275634765625,0.54229736328125,0.7353515625,-0.51953125,0.4345703125,-16.125,15.4375,-14.6875
0,75,373,203,691,286,59,40,37,0.66033935546875,0.089111328125,-0.51165771484375,0.5423583984375,0.6904296875,-0.46435546875,0.513671875,1.0625,2.0,-5.8125
0,76,344,195,658,263,53,36,37,0.66058349609375,0.08990478515625,-0.51116943359375,0.54241943359375,0.77294921875,-0.40234375,0.50634765625,2.0,-2.1875,-1.375
0,94,293,156,594,212,44,35,37,0.6610107421875,0.08819580078125,-0.51141357421875,0.54193115234375,0.74072265625,-0.4521484375,0.46435546875,-8.5,4.0625,0.1875
0,93,261,113,340,126,33,31,34,0.66107177734375,0.08697509765625,-0.51239013671875,0.5411376953125,0.74560546875,-0.4794921875,0.44482421875,-8.4375,-0.1875,-1.875
0,87,236,87,278,108,33,30,36,0.6605224609375,0.08636474609375,-0.51361083984375,0.540771484375,0.75732421875,-0.462890625,0.41650390625,-4.75,-2.8125,1.1875
0,97,366,106,357,146,43,41,45,0.65966796875,0.08636474609375,-0.51409912109375,0.54132080078125,0.77294921875,-0.45361328125,0.46142578125,0.375,-4.3125,4.1875
0,90,371,95,342,138,43,42,44,0.6578369140625,0.08721923828125,-0.51361083984375,0.5438232421875,0.7734375,-0.50634765625,0.43310546875,15.8125,-3.625,9.0625
0,80,404,97,330,131,42,41,45,0.65625,0.08935546875,-0.5130615234375,0.5460205078125,0.7373046875,-0.44873046875,0.4453125,17.5625,-8.5,5.4375
0,112,602,101,306,127,45,51,67,0.65533447265625,0.0914306640625,-0.511962890625,0.5477294921875,0.7841796875,-0.3916015625,0.517578125,13.375,-7.25,5.6875
0,163,704,117,330,132,52,58,82,0.6544189453125,0.092041015625,-0.51171875,0.5489501953125,0.7548828125,-0.43359375,0.50830078125,5.3125,-6.0625,5.4375
0,211,739,106,229,98,51,64,104,0.6534423828125,0.09429931640625,-0.51068115234375,0.55072021484375,0.77099609375,-0.43994140625,0.45458984375,17.5625,-4.75,2.5625
0,239,781,122,297,143,56,72,120,0.6531982421875,0.095458984375,-0.50970458984375,0.5517578125,0.76806640625,-0.4521484375,0.4248046875,12.125,1.4375,-0.3125
0,319,864,213,308,150,70,112,194,0.65362548828125,0.09552001953125,-0.50958251953125,0.55133056640625,0.7841796875,-0.42626953125,0.44970703125,-0.875,2.5,-2.0625
0,317,841,216,303,150,76,142,209,0.6531982421875,0.09515380859375,-0.50872802734375,0.552734375,0.7333984375,-0.5166015625,0.451171875,8.5625,3.3125,1.6875
0,354,763,223,273,147,74,248,230,0.65081787109375,0.09539794921875,-0.508544921875,0.55560302734375,0.70947265625,-0.47998046875,0.53125,10.4375,-11.0,13.5625
0,353,739,231,255,137,72,256,231,0.64581298828125,0.09674072265625,-0.50933837890625,0.5604248046875,0.68896484375,-0.36181640625,0.5908203125,12.3125,-28.9375,32.4375
0,345,726,233,159,91,70,268,232,0.6397705078125,0.097900390625,-0.51324462890625,0.56353759765625,0.8427734375,-0.3603515625,0.4326171875,1.8125,-30.3125,37.125
0,276,622,153,120,73,57,258,176,0.636474609375,0.09722900390625,-0.516357421875,0.56463623046875,0.77587890625,-0.353515625,0.38427734375,-8.8125,-14.625,24.3125
0,290,606,153,102,65,47,245,190,0.6336669921875,0.09429931640625,-0.52056884765625,0.56439208984375,0.787109375,-0.5322265625,0.29833984375,-16.9375,-6.3125,16.4375
0,233,618,133,93,57,44,142,162,0.63116455078125,0.09326171875,-0.5234375,0.56475830078125,0.73046875,-0.6005859375,0.35205078125,-3.875,-10.75,6.25
0,222,559,115,70,55,45,123,164,0.62646484375,0.09588623046875,-0.5247802734375,0.5682373046875,0.7587890625,-0.56298828125,0.42724609375,20.6875,-25.6875,15.4375
0,220,523,99,63,53,139,144,192,0.6209716796875,0.0999755859375,-0.5257568359375,0.5726318359375,0.78857421875,-0.4912109375,0.44287109375,27.4375,-31.1875,21.9375
0,229,660,94,52,49,204,172,199,0.6165771484375,0.1043701171875,-0.52642822265625,0.57598876953125,0.75927734375,-0.4423828125,0.4287109375,24.8125,-28.8125,15.3125
0,240,576,84,51,60,343,330,218,0.6134033203125,0.10821533203125,-0.52667236328125,0.57843017578125,0.734375,-0.4560546875,0.421875,21.25,-22.8125,7.3125
0,252,787,94,55,97,351,352,257,0.61126708984375,0.11212158203125,-0.52606201171875,0.58056640625,0.75048828125,-0.5078125,0.46826171875,23.0,-19.125,-0.1875
0,241,1034,85,55,105,434,386,261,0.60943603515625,0.1162109375,-0.5250244140625,0.58258056640625,0.74609375,-0.5673828125,0.4677734375,26.25,-17.6875,-6.25
0,229,1026,80,51,103,422,380,238,0.60736083984375,0.12158203125,-0.52386474609375,0.58465576171875,0.77197265625,-0.482421875,0.4072265625,31.375,-18.125,-3.625
0,227,987,84,62,131,489,416,240,0.60601806640625,0.12725830078125,-0.52227783203125,0.5863037109375,0.806640625,-0.38916015625,0.3525390625,31.0625,-12.0,-3.4375
0,198,978,87,89,149,426,318,217,0.6064453125,0.132080078125,-0.52056884765625,0.5863037109375,0.84521484375,-0.41064453125,0.3984375,21.625,-5.9375,-13.125
0,185,807,80,105,147,511,332,180,0.60601806640625,0.13568115234375,-0.51983642578125,0.5865478515625,0.79150390625,-0.48876953125,0.3642578125,19.3125,-7.25,-11.25
0,169,424,87,156,159,480,308,173,0.60400390625,0.1390380859375,-0.5186767578125,0.5888671875,0.802734375,-0.5068359375,0.39599609375,26.75,-9.8125,0.5625
0,175,420,95,184,196,488,331,176,0.602783203125,0.1436767578125,-0.51580810546875,0.591552734375,0.80859375,-0.3828125,0.4501953125,32.3125,-8.0,0.75
0,167,266,92,187,193,441,310,176,0.60308837890625,0.1463623046875,-0.5137939453125,0.59234619140625,0.833984375,-0.41064453125,0.39453125,18.625,2.5,-5.375
0,151,221,91,232,212,437,316,151,0.6046142578125,0.14837646484375,-0.51129150390625,0.5924072265625,0.75537109375,-0.482421875,0.423828125,16.1875,5.8125,-17.375
0,127,175,82,230,213,407,310,136,0.60498046875,0.15179443359375,-0.50927734375,0.5928955078125,0.7998046875,-0.42529296875,0.380859375,21.6875,-0.3125,-11.25
0,118,106,78,223,234,379,330,120,0.6065673828125,0.15582275390625,-0.50592041015625,0.5931396484375,0.83447265625,-0.33349609375,0.470703125,21.1875,2.25,-13.875
0,105,68,74,208,213,368,308,110,0.60748291015625,0.15771484375,-0.504150390625,0.59320068359375,0.84326171875,-0.45556640625,0.41064453125,14.3125,5.6875,-11.6875
0,91,59,74,213,204,324,279,92,0.6082763671875,0.16009521484375,-0.501220703125,0.59423828125,0.7763671875,-0.42919921875,0.47802734375,20.5625,2.4375,-10.875
0,106,64,68,169,173,307,274,77,0.60870361328125,0.16253662109375,-0.49835205078125,0.59552001953125,0.7958984375,-0.3671875,0.4658203125,20.0625,3.25,-5.1875
0,97,70,79,173,174,243,273,70,0.6094970703125,0.1649169921875,-0.49591064453125,0.59613037109375,0.8056640625,-0.33056640625,0.47021484375,15.0625,2.1875,-5.9375
0,96,70,85,163,130,231,235,72,0.610595703125,0.16644287109375,-0.49432373046875,0.59588623046875,0.79296875,-0.35693359375,0.47802734375,7.625,1.9375,-9.375
0,102,70,84,166,139,236,225,69,0.61126708984375,0.1678466796875,-0.49334716796875,0.59564208984375,0.798828125,-0.36767578125,0.43701171875,6.9375,1.0625,-7.1875
0,102,73,83,168,165,233,209,68,0.61163330078125,0.1690673828125,-0.49237060546875,0.59564208984375,0.8173828125,-0.37939453125,0.41455078125,8.4375,3.125,-5.1875
0,78,74,88,167,195,232,185,67,0.612548828125,0.1700439453125,-0.4910888671875,0.595458984375,0.8359375,-0.322265625,0.40673828125,5.875,7.625,-3.8125
0,72,64,82,173,190,183,113,63,0.61346435546875,0.169921875,-0.490478515625,0.59515380859375,0.8359375,-0.3681640625,0.40185546875,1.25,9.0625,-3.25
0,77,65,88,198,195,165,98,54,0.61492919921875,0.16943359375,-0.48944091796875,0.59454345703125,0.79833984375,-0.33935546875,0.4541015625,-2.1875,9.25,-5.0
0,67,73,147,273,213,140,73,48,0.61700439453125,0.16839599609375,-0.48895263671875,0.5931396484375,0.8076171875,-0.3125,0.451171875,-9.4375,10.5625,-6.125
0,70,71,160,291,260,113,60,43,0.6195068359375,0.16552734375,-0.489013671875,0.59124755859375,0.81298828125,-0.35888671875,0.46435546875,-18.625,15.3125,-6.0625
0,70,68,193,339,243,98,56,39,0.6220703125,0.1629638671875,-0.48883056640625,0.58941650390625,0.796875,-0.35205078125,0.4599609375,-16.6875,15.25,-6.875
0,70,70,201,337,239,81,46,41,0.62445068359375,0.1597900390625,-0.48876953125,0.587890625,0.7880859375,-0.39599609375,0.48095703125,-17.0625,15.1875,-6.0625
0,61,70,200,336,280,80,46,35,0.6259765625,0.15740966796875,-0.48809814453125,0.58746337890625,0.755859375,-0.3603515625,0.4931640625,-10.25,11.8125,-0.9375
0,69,61,201,333,311,84,51,32,0.6270751953125,0.15631103515625,-0.4869384765625,0.5875244140625,0.79248046875,-0.31494140625,0.4990234375,-3.375,9.5625,1.8125
0,62,60,210,333,270,75,49,31,0.62847900390625,0.1531982421875,-0.487060546875,0.58673095703125,0.78173828125,-0.3681640625,0.4873046875,-15.6875,12.625,1.75
0,69,86,183,349,299,80,47,31,0.6295166015625,0.15020751953125,-0.48712158203125,0.58636474609375,0.77099609375,-0.35009765625,0.5126953125,-14.9375,9.5625,4.8125
0,72,100,250,394,320,85,47,28,0.630615234375,0.1470947265625,-0.487060546875,0.5859375,0.8056640625,-0.380859375,0.47509765625,-13.25,14.625,4.1875
0,70,100,303,387,292,77,41,29,0.63232421875,0.1424560546875,-0.4879150390625,0.5845947265625,0.796875,-0.40771484375,0.4345703125,-22.75,19.0625,2.4375
0,67,106,307,383,242,60,30,29,0.6343994140625,0.1383056640625,-0.48883056640625,0.5826416015625,0.74951171875,-0.33642578125,0.505859375,-27.875,12.5625,0.5
0,64,108,303,382,254,59,29,30,0.6365966796875,0.13372802734375,-0.489990234375,0.58026123046875,0.79345703125,-0.41943359375,0.48779296875,-28.625,15.625,-3.0
0,65,108,308,350,253,57,34,31,0.638671875,0.12884521484375,-0.490966796875,0.57830810546875,0.78173828125,-0.447265625,0.47607421875,-26.25,17.5,-1.875
0,63,100,272,326,271,59,37,32,0.64111328125,0.12408447265625,-0.49163818359375,0.57598876953125,0.75341796875,-0.42626953125,0.5087890625,-28.0,16.4375,-4.3125
0,67,107,215,353,272,59,37,32,0.64398193359375,0.11993408203125,-0.49237060546875,0.57305908203125,0.765625,-0.41748046875,0.47216796875,-27.4375,17.6875,-8.4375
0,67,120,178,349,286,62,38,35,0.64691162109375,0.11572265625,-0.49365234375,0.56951904296875,0.7451171875,-0.3994140625,0.49951171875,-32.5,12.9375,-10.0
0,78,160,164,351,281,60,37,36,0.6490478515625,0.1114501953125,-0.495361328125,0.5665283203125,0.76708984375,-0.4443359375,0.525390625,-31.75,9.5625,-6.5
0,79,195,152,332,246,57,37,37,0.6497802734375,0.10791015625,-0.49658203125,0.5653076171875,0.716796875,-0.48779296875,0.53076171875,-20.375,3.875,-1.0625
0,78,295,107,309,196,48,33,39,0.64947509765625,0.10626220703125,-0.4976806640625,0.56494140625,0.7099609375,-0.4970703125,0.5078125,-8.8125,-3.1875,-0.4375
0,78,393,102,287,189,54,34,39,0.64947509765625,0.10626220703125,-0.49859619140625,0.56414794921875,0.7294921875,-0.390625,0.48876953125,-6.625,-5.8125,-1.9375
0,79,411,94,246,167,51,36,39,0.64984130859375,0.1058349609375,-0.5001220703125,0.56243896484375,0.7666015625,-0.34130859375,0.490234375,-14.6875,-4.8125,-0.875
0,101,453,115,218,133,49,42,46,0.65045166015625,0.103271484375,-0.50213623046875,0.5604248046875,0.82958984375,-0.44580078125,0.462890625,-21.5625,3.625,-0.1875
0,106,469,118,196,127,46,39,47,0.65008544921875,0.09893798828125,-0.5048828125,0.55914306640625,0.70751953125,-0.52587890625,0.44775390625,-24.75,1.0,3.8125
0,109,470,118,177,119,46,41,52,0.64886474609375,0.09722900390625,-0.50701904296875,0.55889892578125,0.70654296875,-0.51708984375,0.466796875,-10.625,-8.0,3.0625
0,111,429,116,182,117,44,45,56,0.6475830078125,0.09649658203125,-0.5081787109375,0.55950927734375,0.7333984375,-0.3662109375,0.576171875,-10.25,-12.5625,12.5625
0,148,509,117,213,127,49,47,64,0.6473388671875,0.09808349609375,-0.5089111328125,0.55877685546875,0.89453125,-0.326171875,0.458984375,-1.9375,-4.6875,3.75
0,182,584,103,228,147,66,56,66,0.6494140625,0.0921630859375,-0.5120849609375,0.55450439453125,0.78857421875,-0.48486328125,0.35107421875,-41.4375,17.375,-4.75
0,195,664,97,229,146,70,60,67,0.65008544921875,0.086669921875,-0.51495361328125,0.55194091796875,0.65283203125,-0.60498046875,0.47412109375,-33.1875,2.4375,-5.8125
0,194,688,100,272,165,75,67,62,0.648681640625,0.08673095703125,-0.5164794921875,0.55218505859375,0.73388671875,-0.53271484375,0.509765625,-2.75,-13.9375,1.0
0,197,707,111,288,171,76,64,61,0.64752197265625,0.09039306640625,-0.51629638671875,0.5531005859375,0.82568359375,-0.21630859375,0.53125,7.4375,-16.6875,10.875
0,173,717,126,373,225,80,67,53,0.6492919921875,0.08709716796875,-0.5194091796875,0.548583984375,0.8544921875,-0.4736328125,0.23486328125,-29.25,15.9375,-9.375
0,135,646,122,438,223,68,58,45,0.65185546875,0.081298828125,-0.52191162109375,0.5440673828125,0.6875,-0.57568359375,0.33349609375,-37.3125,17.375,-15.3125
0,131,623,132,594,310,77,67,54,0.6522216796875,0.0811767578125,-0.52203369140625,0.5435791015625,0.76806640625,-0.63671875,0.419921875,3.8125,2.0625,-11.75
0,135,561,129,600,317,75,60,56,0.65118408203125,0.08642578125,-0.51947021484375,0.54644775390625,0.80322265625,-0.44580078125,0.42431640625,36.875,-6.75,-1.75
0,128,553,116,626,327,74,61,55,0.651123046875,0.0899658203125,-0.51788330078125,0.5474853515625,0.76416015625,-0.40625,0.38134765625,22.0625,-1.3125,-5.125
0,126,528,114,644,328,76,61,55,0.65203857421875,0.0919189453125,-0.5162353515625,0.547607421875,0.751953125,-0.39208984375,0.486328125,9.375,0.0,-6.75
0,109,557,121,696,375,84,62,53,0.65264892578125,0.092041015625,-0.51513671875,0.54791259765625,0.791015625,-0.525390625,0.39404296875,9.0625,9.375,-5.6875
0,87,524,136,684,430,95,67,45,0.6522216796875,0.0948486328125,-0.51104736328125,0.55169677734375,0.72509765625,-0.44677734375,0.482421875,34.125,4.6875,3.4375
0,84,617,146,720,450,96,69,45,0.65142822265625,0.09869384765625,-0.5067138671875,0.55596923828125,0.783203125,-0.4609375,0.43310546875,42.9375,6.125,3.75
0,88,639,153,718,477,103,79,54,0.6507568359375,0.10406494140625,-0.5013427734375,0.5606689453125,0.73583984375,-0.3583984375,0.50439453125,47.75,0.9375,3.75
0,87,591,155,704,494,105,78,53,0.64990234375,0.10791015625,-0.49700927734375,0.56475830078125,0.77490234375,-0.42822265625,0.4990234375,40.375,3.0,4.125
0,87,546,147,630,476,102,77,54,0.6485595703125,0.11187744140625,-0.49261474609375,0.5693359375,0.74072265625,-0.41015625,0.54638671875,41.0,-1.5,6.9375
0,82,493,128,588,392,84,63,51,0.64703369140625,0.1151123046875,-0.4892578125,0.5732421875,0.740234375,-0.44189453125,0.5068359375,35.4375,-1.375,6.0
0,75,539,116,559,383,84,58,48,0.64697265625,0.11920166015625,-0.4857177734375,0.5755615234375,0.74609375,-0.34912109375,0.51171875,31.0625,-0.1875,-2.625
0,80,562,107,550,351,79,44,38,0.6473388671875,0.12164306640625,-0.4833984375,0.57659912109375,0.79345703125,-0.3779296875,0.49560546875,18.625,3.5625,-4.0
0,83,553,94,479,295,75,61,36,0.64715576171875,0.12298583984375,-0.48162841796875,0.5780029296875,0.771484375,-0.4189453125,0.4833984375,16.4375,3.8125,0.0
0,74,612,96,450,262,82,71,32,0.6455078125,0.12554931640625,-0.4791259765625,0.581298828125,0.75537109375,-0.4052734375,0.4658203125,29.4375,0.75,8.0
0,74,633,88,335,227,101,85,33,0.6427001953125,0.12921142578125,-0.47637939453125,0.58587646484375,0.7783203125,-0.35205078125,0.4873046875,36.625,-4.8125,16.9375
0,73,567,84,267,176,107,96,32,0.6395263671875,0.13250732421875,-0.473388671875,0.59100341796875,0.78125,-0.31396484375,0.52197265625,35.3125,-4.625,22.8125
0,75,475,76,165,136,173,118,27,0.63604736328125,0.1348876953125,-0.47113037109375,0.59600830078125,0.75537109375,-0.341796875,0.51416015625,31.125,-5.25,24.5
0,75,486,60,150,103,180,123,33,0.63140869140625,0.1376953125,-0.46917724609375,0.60186767578125,0.7177734375,-0.4033203125,0.52685546875,36.375,-12.3125,26.1875
0,74,410,50,124,97,191,128,34,0.6259765625,0.14215087890625,-0.4661865234375,0.6087646484375,0.75146484375,-0.408203125,0.544921875,49.4375,-15.0625,28.1875
0,84,371,54,105,94,218,174,33,0.620361328125,0.14691162109375,-0.4627685546875,0.615966796875,0.7822265625,-0.4130859375,0.51806640625,53.875,-11.8125,29.3125
0,91,236,54,92,94,232,189,38,0.61474609375,0.15240478515625,-0.45867919921875,0.62322998046875,0.759765625,-0.41162109375,0.5078125,59.625,-12.0625,26.25
0,79,224,56,87,80,267,254,39,0.609375,0.1580810546875,-0.4544677734375,0.63018798828125,0.73583984375,-0.42333984375,0.5263671875,60.0,-13.75,22.5
0,76,174,54,70,78,275,268,46,0.60357666015625,0.1644287109375,-0.45050048828125,0.63690185546875,0.74658203125,-0.41064453125,0.53173828125,60.5625,-17.9375,22.0625
0,101,130,55,71,78,313,300,49,0.59820556640625,0.172119140625,-0.44573974609375,0.64324951171875,0.76025390625,-0.32421875,0.5498046875,63.625,-19.625,19.625
0,137,112,50,71,74,307,296,52,0.59375,0.17919921875,-0.44122314453125,0.64849853515625,0.814453125,-0.31005859375,0.515625,57.5625,-13.125,16.1875
0,134,97,48,71,81,387,307,51,0.59033203125,0.18359375,-0.43768310546875,0.65283203125,0.763671875,-0.3662109375,0.51220703125,43.9375,-6.25,12.1875
0,145,97,48,67,80,368,280,55,0.58734130859375,0.18658447265625,-0.43359375,0.65740966796875,0.7138671875,-0.3896484375,0.55419921875,41.4375,-1.875,11.875
0,150,99,43,63,74,382,271,52,0.5848388671875,0.1910400390625,-0.4285888671875,0.66156005859375,0.74853515625,-0.296875,0.57666015625,44.5,-2.75,9.25
0,138,97,40,56,68,357,236,51,0.58349609375,0.19488525390625,-0.42449951171875,0.664306640625,0.8095703125,-0.2529296875,0.53564453125,33.9375,2.4375,6.1875
0,101,89,38,50,66,345,216,46,0.58355712890625,0.195556640625,-0.42205810546875,0.6656494140625,0.8095703125,-0.2607421875,0.48583984375,13.75,13.75,5.1875
0,108,86,37,41,59,327,229,51,0.58465576171875,0.1937255859375,-0.41961669921875,0.66668701171875,0.759765625,-0.279296875,0.51416015625,3.5,22.4375,3.9375
0,254,119,40,38,59,303,206,60,0.5867919921875,0.1907958984375,-0.41705322265625,0.66729736328125,0.7451171875,-0.27490234375,0.58154296875,-3.25,25.5625,1.25
0,352,168,47,38,56,344,247,87,0.58807373046875,0.1875,-0.41546630859375,0.6680908203125,0.69677734375,-0.369140625,0.62255859375,-3.9375,18.0,1.1875
0,367,182,66,47,57,352,264,103,0.587890625,0.18585205078125,-0.413818359375,0.669677734375,0.67724609375,-0.376953125,0.61376953125,5.625,9.5625,4.5625
0,378,196,96,58,59,364,283,248,0.5880126953125,0.18511962890625,-0.4124755859375,0.670654296875,0.70849609375,-0.3173828125,0.59716796875,3.9375,7.125,3.25
0,384,270,118,70,63,326,297,259,0.58880615234375,0.18463134765625,-0.41143798828125,0.67071533203125,0.75,-0.29931640625,0.576171875,0.5625,8.8125,-0.3125
0,319,269,123,71,79,336,291,311,0.58984375,0.18341064453125,-0.4112548828125,0.6702880859375,0.74169921875,-0.296875,0.59619140625,-7.1875,7.8125,-0.6875
0,277,287,127,71,78,269,265,365,0.59100341796875,0.1812744140625,-0.41162109375,0.66961669921875,0.70556640625,-0.3271484375,0.61083984375,-12.1875,7.125,-1.125
0,317,315,144,68,91,249,261,386,0.5914306640625,0.1798095703125,-0.41229248046875,0.66925048828125,0.7255859375,-0.33251953125,0.59423828125,-9.25,3.8125,1.4375
0,347,495,162,64,91,234,243,353,0.59173583984375,0.17852783203125,-0.4132080078125,0.668701171875,0.72021484375,-0.322265625,0.580078125,-10.0,2.4375,1.6875
0,360,485,161,56,86,178,197,364,0.5921630859375,0.17724609375,-0.4140625,0.66815185546875,0.7216796875,-0.34033203125,0.58740234375,-9.4375,2.4375,0.3125
0,373,546,183,63,75,139,193,334,0.59307861328125,0.1759033203125,-0.4150390625,0.66705322265625,0.73388671875,-0.3564453125,0.56494140625,-10.75,4.625,-3.4375
0,344,654,236,71,77,125,167,271,0.5938720703125,0.17474365234375,-0.41552734375,0.6663818359375,0.72021484375,-0.34228515625,0.5869140625,-8.125,3.9375,-2.125
0,314,788,283,75,60,100,141,241,0.5948486328125,0.1734619140625,-0.41552734375,0.66583251953125,0.7578125,-0.3623046875,0.56298828125,-5.125,9.625,-2.5
0,277,739,285,76,59,80,143,197,0.59613037109375,0.17205810546875,-0.41522216796875,0.66522216796875,0.74462890625,-0.31591796875,0.54345703125,-6.5625,12.375,-1.875
0,257,782,287,78,90,67,117,157,0.59814453125,0.1700439453125,-0.41510009765625,0.6640625,0.7373046875,-0.3173828125,0.56884765625,-11.8125,14.0,-5.0625
0,235,805,282,84,115,55,112,137,0.6002197265625,0.164794921875,-0.4132080078125,0.6646728515625,0.70556640625,-0.27392578125,0.63818359375,-6.625,14.3125,8.4375
0,217,755,265,90,170,56,111,131,0.60052490234375,0.16070556640625,-0.41302490234375,0.66552734375,0.6962890625,-0.28466796875,0.58935546875,-14.375,17.9375,14.75
0,187,651,208,88,178,54,103,118,0.60125732421875,0.15594482421875,-0.41375732421875,0.66552734375,0.69482421875,-0.361328125,0.5732421875,-19.0,18.6875,9.125
0,173,605,196,123,210,63,72,86,0.60162353515625,0.15167236328125,-0.4146728515625,0.6656494140625,0.6708984375,-0.39501953125,0.59033203125,-16.625,13.6875,7.6875
0,198,621,224,206,250,70,62,102,0.60211181640625,0.1490478515625,-0.41461181640625,0.665771484375,0.66845703125,-0.4287109375,0.634765625,-7.125,9.125,1.25
0,186,584,239,267,319,98,58,88,0.6014404296875,0.14764404296875,-0.41436767578125,0.6668701171875,0.66015625,-0.39697265625,0.61328125,-0.0625,4.0625,7.3125
0,171,546,231,290,406,120,65,85,0.601318359375,0.1475830078125,-0.412841796875,0.66790771484375,0.7021484375,-0.2705078125,0.56396484375,5.1875,9.0,8.25
0,171,512,272,310,422,122,65,87,0.6029052734375,0.1455078125,-0.4127197265625,0.6669921875,0.7568359375,-0.3857421875,0.60888671875,-9.6875,14.5,-3.1875
0,173,498,266,318,421,119,60,85,0.6051025390625,0.141845703125,-0.4130859375,0.66558837890625,0.611328125,-0.45654296875,0.6689453125,-17.25,10.8125,-10.125
0,130,482,262,275,423,119,64,60,0.60394287109375,0.14154052734375,-0.41375732421875,0.66632080078125,0.5986328125,-0.501953125,0.62890625,4.0,-7.8125,-0.0625
0,134,444,246,222,376,98,61,59,0.6029052734375,0.14471435546875,-0.4119873046875,0.66766357421875,0.66943359375,-0.4140625,0.64892578125,22.875,-9.875,-2.6875
0,148,431,244,227,283,75,52,59,0.602294921875,0.1474609375,-0.41064453125,0.66845703125,0.71484375,-0.27587890625,0.58203125,13.5,-4.0625,2.625
0,140,403,199,213,276,72,50,56,0.6033935546875,0.14959716796875,-0.41009521484375,0.66729736328125,0.6982421875,-0.314453125,0.6044921875,3.8125,-3.6875,-11.25
0,129,472,214,189,256,68,51,57,0.6038818359375,0.1500244140625,-0.41064453125,0.66644287109375,0.68505859375,-0.4052734375,0.626953125,-1.375,-4.0625,-7.25
0,131,428,193,203,211,57,48,57,0.60333251953125,0.1513671875,-0.41070556640625,0.6666259765625,0.68115234375,-0.42041015625,0.58251953125,8.375,-5.5625,-3.5625
0,149,454,225,198,196,57,47,63,0.602294921875,0.154296875,-0.40948486328125,0.6676025390625,0.693359375,-0.36865234375,0.58203125,19.375,-7.0625,-1.0
0,165,472,223,154,148,52,49,71,0.60064697265625,0.15716552734375,-0.40875244140625,0.6688232421875,0.7138671875,-0.37451171875,0.591796875,18.1875,-9.5625,2.5
0,189,497,235,133,108,53,58,77,0.5992431640625,0.15997314453125,-0.40765380859375,0.670166015625,0.6826171875,-0.34765625,0.61669921875,17.9375,-9.875,2.25
0,209,483,227,121,134,58,59,79,0.5972900390625,0.1622314453125,-0.4068603515625,0.67181396484375,0.701171875,-0.3759765625,0.6064453125,17.5,-8.75,5.6875
0,207,445,224,85,131,58,57,77,0.59649658203125,0.16375732421875,-0.40667724609375,0.67230224609375,0.685546875,-0.32958984375,0.61962890625,6.875,-7.875,1.6875
0,203,414,184,69,128,64,76,78,0.59674072265625,0.1656494140625,-0.4063720703125,0.6717529296875,0.71923828125,-0.27490234375,0.6201171875,2.6875,-5.9375,-3.4375
0,214,394,166,57,125,60,77,72,0.5982666015625,0.16534423828125,-0.40771484375,0.669677734375,0.75390625,-0.2919921875,0.57666015625,-14.0,1.8125,-7.25
0,196,373,138,54,132,62,75,84,0.5997314453125,0.1630859375,-0.40972900390625,0.667724609375,0.7197265625,-0.3486328125,0.5966796875,-21.3125,4.625,-4.5625
0,193,342,122,53,115,67,80,88,0.60052490234375,0.16094970703125,-0.4110107421875,0.66668701171875,0.68212890625,-0.3564453125,0.60546875,-15.1875,3.6875,-1.3125
0,200,316,99,51,120,68,94,95,0.600830078125,0.15972900390625,-0.412109375,0.666015625,0.7080078125,-0.3486328125,0.5966796875,-10.375,1.3125,1.0625
0,222,284,92,52,159,140,100,91,0.60150146484375,0.15838623046875,-0.4132080078125,0.6650390625,0.67626953125,-0.3232421875,0.6044921875,-13.3125,0.9375,-0.875
0,227,285,107,54,197,188,158,142,0.6025390625,0.15704345703125,-0.4146728515625,0.66351318359375,0.6923828125,-0.35888671875,0.65673828125,-16.4375,-1.9375,-5.0625
0,231,258,115,64,195,197,169,154,0.60400390625,0.155029296875,-0.41778564453125,0.66070556640625,0.6533203125,-0.35986328125,0.61328125,-27.1875,-5.3125,-8.9375
0,223,316,112,59,192,201,180,168,0.60601806640625,0.15386962890625,-0.42169189453125,0.6566162109375,0.69775390625,-0.29443359375,0.61279296875,-33.9375,-9.4375,-12.25
0,232,437,121,63,192,214,206,179,0.60870361328125,0.15179443359375,-0.42706298828125,0.65118408203125,0.73291015625,-0.333984375,0.60107421875,-44.8125,-9.0,-16.75
0,210,525,121,66,170,190,227,182,0.61077880859375,0.1485595703125,-0.43280029296875,0.6461181640625,0.70458984375,-0.3857421875,0.57373046875,-46.5,-7.625,-13.5625
0,194,593,99,65,126,149,224,162,0.61187744140625,0.14630126953125,-0.43798828125,0.64208984375,0.712890625,-0.40478515625,0.541015625,-36.3125,-9.375,-9.4375
0,201,596,93,59,120,161,249,167,0.6129150390625,0.1451416015625,-0.44244384765625,0.6383056640625,0.72705078125,-0.3916015625,0.55126953125,-30.25,-11.0,-10.75
0,208,547,89,58,113,153,254,160,0.61358642578125,0.1441650390625,-0.44696044921875,0.634765625,0.72119140625,-0.412109375,0.5380859375,-28.0,-13.1875,-10.0625
0,191,510,77,55,141,141,235,170,0.61395263671875,0.14349365234375,-0.451171875,0.63153076171875,0.71435546875,-0.35693359375,0.54541015625,-27.4375,-14.4375,-6.25
0,208,452,79,53,142,121,229,182,0.61444091796875,0.1429443359375,-0.454833984375,0.6285400390625,0.751953125,-0.3330078125,0.619140625,-27.875,-15.75,-3.9375
0,194,392,88,55,148,116,210,195,0.61590576171875,0.14031982421875,-0.46063232421875,0.62347412109375,0.765625,-0.3984375,0.52880859375,-44.6875,-9.9375,-10.9375
0,217,399,87,58,145,94,182,225,0.6168212890625,0.137451171875,-0.466552734375,0.61883544921875,0.69970703125,-0.435546875,0.49951171875,-42.3125,-12.3125,-10.0625
0,209,395,92,78,146,98,170,247,0.6163330078125,0.13623046875,-0.47210693359375,0.61529541015625,0.7314453125,-0.43896484375,0.48486328125,-31.25,-18.5,-5.0
0,210,340,92,82,105,85,163,252,0.6156005859375,0.13580322265625,-0.4764404296875,0.61279296875,0.75390625,-0.380859375,0.5009765625,-24.0625,-17.25,0.0625
0,181,305,93,85,81,79,143,248,0.614990234375,0.13555908203125,-0.47998046875,0.61065673828125,0.767578125,-0.37548828125,0.494140625,-20.125,-14.1875,0.8125
0,167,245,83,82,61,79,125,230,0.6141357421875,0.135009765625,-0.48382568359375,0.608642578125,0.7578125,-0.4091796875,0.4619140625,-19.9375,-13.75,1.25
0,126,230,81,82,57,59,112,189,0.6126708984375,0.1343994140625,-0.4879150390625,0.6070556640625,0.77587890625,-0.42138671875,0.474609375,-19.5,-16.4375,5.0
0,126,231,82,81,63,51,123,170,0.61187744140625,0.133056640625,-0.4918212890625,0.60491943359375,0.7744140625,-0.44970703125,0.4580078125,-22.25,-11.375,1.4375
0,121,204,96,92,66,52,129,160,0.61126708984375,0.13177490234375,-0.49517822265625,0.60308837890625,0.75146484375,-0.45361328125,0.4384765625,-19.375,-8.9375,0.5625
0,117,169,89,94,87,50,138,153,0.61053466796875,0.13128662109375,-0.4981689453125,0.60150146484375,0.7802734375,-0.447265625,0.4541015625,-15.3125,-10.625,0.5
0,122,129,96,96,101,51,138,146,0.61016845703125,0.13043212890625,-0.50103759765625,0.59967041015625,0.7900390625,-0.43701171875,0.45263671875,-17.375,-8.3125,0.5
0,113,101,97,100,110,50,134,135,0.6094970703125,0.1292724609375,-0.50372314453125,0.59832763671875,0.77880859375,-0.40185546875,0.44580078125,-17.8125,-7.25,5.6875
0,109,83,88,87,107,49,133,119,0.609619140625,0.126953125,-0.5064697265625,0.596435546875,0.78076171875,-0.43408203125,0.44189453125,-23.4375,-1.6875,2.75
0,113,94,70,121,116,50,147,95,0.6102294921875,0.123779296875,-0.509033203125,0.59423828125,0.7529296875,-0.4833984375,0.44677734375,-25.4375,1.75,-0.9375
0,114,94,71,136,105,50,133,122,0.6102294921875,0.12152099609375,-0.51104736328125,0.593017578125,0.74267578125,-0.48193359375,0.46044921875,-18.0,-1.6875,1.75
0,111,94,70,139,92,45,132,123,0.60968017578125,0.12030029296875,-0.51312255859375,0.59197998046875,0.7626953125,-0.4697265625,0.45556640625,-14.25,-6.25,2.75
0,105,99,70,136,82,47,129,127,0.609375,0.1185302734375,-0.51544189453125,0.59063720703125,0.76220703125,-0.4755859375,0.45703125,-18.0,-5.25,2.4375
0,105,108,68,141,82,44,132,121,0.60931396484375,0.11651611328125,-0.5177001953125,0.58917236328125,0.7431640625,-0.47998046875,0.45263671875,-18.9375,-3.875,1.0
0,116,98,72,104,59,43,139,118,0.6090087890625,0.11480712890625,-0.52020263671875,0.58758544921875,0.751953125,-0.4912109375,0.435546875,-18.6875,-5.6875,0.6875
0,108,104,76,104,68,50,134,82,0.60833740234375,0.11358642578125,-0.52215576171875,0.5867919921875,0.74853515625,-0.47412109375,0.46044921875,-14.125,-7.4375,3.5625
0,104,96,70,116,78,48,136,77,0.6075439453125,0.11236572265625,-0.524169921875,0.5860595703125,0.76953125,-0.4736328125,0.396484375,-11.6875,-4.5,5.25
0,112,119,67,123,79,45,133,70,0.60736083984375,0.11077880859375,-0.52618408203125,0.584716796875,0.759765625,-0.4931640625,0.4072265625,-15.375,-2.625,1.125
0,124,119,66,133,82,48,115,66,0.6070556640625,0.11016845703125,-0.52789306640625,0.5836181640625,0.7861328125,-0.466796875,0.40380859375,-10.9375,-4.0,1.5625
0,114,130,66,140,85,45,105,58,0.6068115234375,0.10888671875,-0.530029296875,0.5821533203125,0.78759765625,-0.46826171875,0.39208984375,-15.75,-3.4375,2.375
0,117,126,58,124,77,34,104,55,0.606689453125,0.10675048828125,-0.53265380859375,0.58026123046875,0.765625,-0.4912109375,0.396484375,-21.3125,-2.9375,1.75
0,127,128,62,115,81,43,104,59,0.6065673828125,0.10491943359375,-0.53466796875,0.57891845703125,0.75439453125,-0.52197265625,0.39453125,-15.9375,-1.8125,0.5
0,117,106,70,139,88,45,105,54,0.606201171875,0.10382080078125,-0.53607177734375,0.57818603515625,0.7626953125,-0.49853515625,0.400390625,-10.125,-2.9375,2.25
0,111,114,73,136,94,45,101,46,0.60595703125,0.10272216796875,-0.53729248046875,0.5775146484375,0.8056640625,-0.501953125,0.3701171875,-8.75,1.0625,3.5625
0,122,113,78,138,103,47,67,44,0.60650634765625,0.10101318359375,-0.53839111328125,0.57623291015625,0.7900390625,-0.50146484375,0.365234375,-12.8125,5.0,0.0625
0,121,113,84,155,117,53,66,45,0.60760498046875,0.09857177734375,-0.53948974609375,0.574462890625,0.76416015625,-0.5048828125,0.3681640625,-16.875,8.1875,-2.0625
0,114,120,83,191,114,48,60,40,0.60882568359375,0.095947265625,-0.54071044921875,0.57244873046875,0.75146484375,-0.533203125,0.37841796875,-18.6875,7.375,-4.25
0,117,131,83,224,135,58,63,41,0.6097412109375,0.0950927734375,-0.5408935546875,0.57147216796875,0.7822265625,-0.517578125,0.40576171875,-6.875,4.375,-4.3125
0,96,121,87,225,132,59,61,37,0.61053466796875,0.09375,-0.54095458984375,0.57080078125,0.76220703125,-0.54248046875,0.3662109375,-5.3125,7.6875,-3.1875
0,69,111,84,242,126,58,54,33,0.6114501953125,0.09271240234375,-0.54071044921875,0.5701904296875,0.74609375,-0.49658203125,0.41259765625,-6.25,5.375,-2.375
0,64,113,84,325,151,60,48,29,0.6126708984375,0.09185791015625,-0.5404052734375,0.56927490234375,0.7783203125,-0.474609375,0.40625,-6.25,7.125,-2.6875
0,58,103,89,310,155,60,46,30,0.6142578125,0.0899658203125,-0.54052734375,0.5677490234375,0.75537109375,-0.501953125,0.4013671875,-13.0,9.3125,-4.9375
0,52,87,82,285,138,51,37,26,0.61541748046875,0.08856201171875,-0.54052734375,0.5667724609375,0.76708984375,-0.50244140625,0.41015625,-8.875,7.3125,-2.875
0,68,87,78,318,138,47,38,27,0.616455078125,0.08648681640625,-0.5408935546875,0.5655517578125,0.7490234375,-0.5478515625,0.37158203125,-10.6875,8.875,-3.6875
0,70,82,80,310,141,46,39,29,0.6175537109375,0.08441162109375,-0.541259765625,0.5643310546875,0.72314453125,-0.57958984375,0.38623046875,-10.4375,7.625,-6.6875
0,70,77,76,224,96,38,35,31,0.61859130859375,0.083740234375,-0.54132080078125,0.56329345703125,0.75244140625,-0.5595703125,0.39599609375,-4.6875,4.75,-8.25
0,75,82,68,218,84,39,33,31,0.61993408203125,0.08343505859375,-0.541015625,0.5621337890625,0.75830078125,-0.498046875,0.4072265625,-4.9375,5.0,-7.625
0,87,155,76,215,80,36,35,34,0.6214599609375,0.08294677734375,-0.54034423828125,0.5611572265625,0.77978515625,-0.4921875,0.44287109375,-5.0625,6.5,-6.0625
0,78,165,72,154,68,35,32,34,0.62261962890625,0.081787109375,-0.5400390625,0.560302734375,0.7607421875,-0.48486328125,0.40478515625,-6.9375,7.75,-2.5625
0,82,218,69,148,69,40,32,34,0.6239013671875,0.08099365234375,-0.5394287109375,0.5595703125,0.77587890625,-0.4765625,0.3916015625,-4.0625,9.3125,-2.6875
0,128,374,73,126,71,49,47,53,0.625,0.079345703125,-0.5386962890625,0.559326171875,0.7607421875,-0.515625,0.40966796875,-4.5,10.9375,-0.125
0,136,420,76,130,68,48,49,59,0.62579345703125,0.07794189453125,-0.53826904296875,0.55902099609375,0.74755859375,-0.51220703125,0.408203125,-4.875,7.8125,-0.5
0,135,417,76,195,101,65,57,63,0.6265869140625,0.077880859375,-0.536865234375,0.5594482421875,0.78515625,-0.4658203125,0.4287109375,3.6875,7.6875,1.3125
0,147,429,87,219,113,76,70,74,0.6278076171875,0.07696533203125,-0.5360107421875,0.55908203125,0.79638671875,-0.455078125,0.3818359375,-2.4375,12.25,1.0625
0,160,445,86,213,110,74,73,84,0.6290283203125,0.07415771484375,-0.5357666015625,0.55828857421875,0.7236328125,-0.55078125,0.3779296875,-9.9375,14.25,-1.75
0,128,351,82,220,108,69,66,73,0.6295166015625,0.0728759765625,-0.53521728515625,0.5584716796875,0.72802734375,-0.56494140625,0.4248046875,-1.0,6.3125,-1.5
0,135,359,82,231,112,72,66,71,0.62939453125,0.0723876953125,-0.53436279296875,0.55950927734375,0.74951171875,-0.52001953125,0.4404296875,3.5,3.375,4.625
0,140,356,75,194,103,58,58,68,0.62939453125,0.07244873046875,-0.53350830078125,0.560302734375,0.75146484375,-0.4951171875,0.4033203125,5.875,4.0625,2.5
0,229,424,115,177,103,52,66,92,0.63055419921875,0.0718994140625,-0.532470703125,0.56005859375,0.74560546875,-0.5224609375,0.43896484375,0.0,8.0,-4.1875
0,229,422,120,175,102,50,64,87,0.63128662109375,0.0701904296875,-0.53253173828125,0.5594482421875,0.712890625,-0.552734375,0.4013671875,-6.5625,7.125,-3.0625
0,250,532,124,169,105,60,74,99,0.6317138671875,0.0709228515625,-0.53094482421875,0.560302734375,0.7255859375,-0.54931640625,0.4501953125,10.5,2.875,-4.5
0,266,530,133,148,101,57,78,106,0.63128662109375,0.0721435546875,-0.53009033203125,0.56146240234375,0.751953125,-0.48193359375,0.4462890625,9.625,-2.75,2.6875
0,279,628,141,104,78,62,86,119,0.62994384765625,0.07244873046875,-0.53021240234375,0.56280517578125,0.70263671875,-0.5380859375,0.40673828125,6.8125,-5.3125,5.1875
0,253,594,114,82,60,58,106,124,0.6279296875,0.0732421875,-0.53118896484375,0.56402587890625,0.70654296875,-0.521484375,0.4296875,4.625,-13.1875,6.4375
0,251,634,122,72,55,58,135,141,0.62506103515625,0.0751953125,-0.53192138671875,0.56622314453125,0.7294921875,-0.5009765625,0.4599609375,10.9375,-19.5,11.1875
0,232,589,122,61,46,51,133,150,0.6212158203125,0.07879638671875,-0.531982421875,0.5699462890625,0.7353515625,-0.501953125,0.4619140625,23.9375,-24.625,14.375
0,235,712,145,77,55,71,287,297,0.61749267578125,0.08319091796875,-0.53240966796875,0.572998046875,0.755859375,-0.46923828125,0.45947265625,22.5,-27.9375,12.1875
0,235,627,142,73,49,72,301,310,0.6138916015625,0.086669921875,-0.5340576171875,0.57476806640625,0.7099609375,-0.43505859375,0.470703125,9.9375,-31.875,10.4375
0,190,629,134,70,47,71,294,307,0.61053466796875,0.08856201171875,-0.53759765625,0.57476806640625,0.81591796875,-0.5166015625,0.4404296875,-4.5,-29.125,8.5625
0,184,569,120,69,49,70,286,301,0.60809326171875,0.08929443359375,-0.5406494140625,0.57440185546875,0.76904296875,-0.560546875,0.36181640625,-4.6875,-18.625,3.9375
0,192,533,116,74,50,68,287,298,0.6064453125,0.0908203125,-0.542724609375,0.573974609375,0.75048828125,-0.53955078125,0.3212890625,1.375,-13.6875,-1.375
0,150,332,67,100,87,49,139,153,0.6055908203125,0.09326171875,-0.54339599609375,0.5738525390625,0.7783203125,-0.5078125,0.34521484375,7.9375,-10.3125,-4.375
0,155,354,83,149,104,40,102,124,0.6055908203125,0.0960693359375,-0.54248046875,0.57415771484375,0.814453125,-0.521484375,0.3876953125,14.1875,-4.3125,-7.375
0,159,396,101,177,135,40,90,109,0.60601806640625,0.099365234375,-0.54168701171875,0.573974609375,0.81201171875,-0.4296875,0.35693359375,12.6875,-3.875,-7.5
0,163,438,118,187,143,42,80,102,0.6068115234375,0.10028076171875,-0.5413818359375,0.57318115234375,0.81103515625,-0.50341796875,0.33056640625,3.3125,4.625,-7.0625
0,163,489,128,229,152,47,81,91,0.60833740234375,0.1004638671875,-0.541015625,0.57196044921875,0.783203125,-0.48974609375,0.39599609375,-2.9375,4.75,-9.4375
0,176,499,141,249,160,51,76,85,0.60888671875,0.1019287109375,-0.539306640625,0.5726318359375,0.78369140625,-0.42578125,0.423828125,9.625,2.0625,-0.9375
0,149,505,132,246,200,55,76,65,0.60980224609375,0.10235595703125,-0.53802490234375,0.57281494140625,0.80224609375,-0.43359375,0.41064453125,3.75,6.375,-0.125
0,132,454,126,239,192,52,73,61,0.61175537109375,0.10101318359375,-0.53729248046875,0.5716552734375,0.7900390625,-0.45068359375,0.35888671875,-6.875,15.0625,-3.9375
0,122,457,129,382,223,56,74,57,0.6143798828125,0.09832763671875,-0.53662109375,0.5699462890625,0.7548828125,-0.5234375,0.36669921875,-11.75,19.5,-9.125
0,103,430,128,378,221,52,57,49,0.61590576171875,0.0963134765625,-0.535888671875,0.56927490234375,0.7568359375,-0.5517578125,0.38427734375,-5.1875,14.4375,-5.375
0,82,418,124,464,252,59,53,44,0.6173095703125,0.0980224609375,-0.53314208984375,0.57012939453125,0.78271484375,-0.44287109375,0.443359375,14.5625,7.625,-5.375
0,69,380,121,475,233,58,52,43,0.61920166015625,0.096435546875,-0.5325927734375,0.56884765625,0.7646484375,-0.54052734375,0.31103515625,-3.875,17.5,-9.375
0,62,408,126,521,274,67,54,40,0.62060546875,0.09710693359375,-0.53082275390625,0.56884765625,0.705078125,-0.466796875,0.4521484375,5.6875,4.75,-8.75
0,72,441,125,495,266,67,67,45,0.621826171875,0.09716796875,-0.52850341796875,0.5697021484375,0.8125,-0.52783203125,0.50146484375,8.125,9.125,-3.4375
0,74,460,143,646,302,72,71,46,0.622802734375,0.0987548828125,-0.5267333984375,0.57000732421875,0.73681640625,-0.466796875,0.41845703125,11.8125,3.6875,-8.3125
0,69,438,139,627,269,62,65,42,0.6240234375,0.0989990234375,-0.52508544921875,0.57012939453125,0.72607421875,-0.50537109375,0.4033203125,7.6875,8.9375,-8.6875
0,71,480,168,654,295,68,68,44,0.625732421875,0.1009521484375,-0.52349853515625,0.5693359375,0.78125,-0.42041015625,0.43505859375,7.25,4.0625,-11.9375
0,79,562,165,698,325,68,70,46,0.6279296875,0.0997314453125,-0.522216796875,0.568359375,0.759765625,-0.5400390625,0.45556640625,-3.125,13.0625,-11.875
0,72,520,158,692,329,70,56,43,0.6285400390625,0.100830078125,-0.52008056640625,0.56939697265625,0.74658203125,-0.52099609375,0.439453125,15.25,5.875,-6.4375
0,66,455,137,575,303,65,54,39,0.6287841796875,0.10260009765625,-0.5181884765625,0.570556640625,0.734375,-0.48681640625,0.39794921875,18.0,3.5625,-5.6875
0,70,721,140,606,337,72,59,43,0.62921142578125,0.10565185546875,-0.51593017578125,0.57159423828125,0.78173828125,-0.3623046875,0.47412109375,17.25,-1.1875,-2.4375
0,67,856,108,609,314,68,57,42,0.630615234375,0.106201171875,-0.513916015625,0.57171630859375,0.8095703125,-0.4677734375,0.45654296875,8.125,10.5,-6.625
0,57,877,103,537,246,59,50,41,0.63104248046875,0.10528564453125,-0.5126953125,0.57257080078125,0.7138671875,-0.54638671875,0.41259765625,7.125,9.3125,-3.0
0,55,867,94,508,228,52,49,38,0.6302490234375,0.10748291015625,-0.50927734375,0.5760498046875,0.73388671875,-0.52099609375,0.4296875,32.9375,5.625,2.0625
0,57,977,112,494,234,64,49,39,0.62884521484375,0.11260986328125,-0.50433349609375,0.5809326171875,0.79052734375,-0.404296875,0.45849609375,48.875,0.8125,7.0625
0,54,954,117,435,192,55,39,33,0.6280517578125,0.115966796875,-0.49981689453125,0.58502197265625,0.80322265625,-0.39697265625,0.439453125,39.0,8.6875,8.1875
0,54,858,118,377,183,54,38,32,0.6268310546875,0.11785888671875,-0.49530029296875,0.58978271484375,0.744140625,-0.41259765625,0.48974609375,35.3125,8.5625,13.5625
0,62,829,133,461,226,63,44,30,0.6241455078125,0.12054443359375,-0.489990234375,0.59649658203125,0.7314453125,-0.47216796875,0.52587890625,48.5625,4.375,19.1875
0,66,863,149,465,276,85,56,40,0.62078857421875,0.12481689453125,-0.483642578125,0.60418701171875,0.75146484375,-0.4501953125,0.4873046875,62.0625,4.4375,21.5
0,70,748,139,455,287,89,58,39,0.616943359375,0.12945556640625,-0.47747802734375,0.61199951171875,0.73828125,-0.4365234375,0.49560546875,63.1875,1.3125,22.9375
0,70,540,130,410,278,90,80,41,0.61236572265625,0.13525390625,-0.47100830078125,0.620361328125,0.69677734375,-0.42431640625,0.560546875,68.0625,-7.8125,23.3125
0,72,467,122,402,275,91,81,42,0.607421875,0.14129638671875,-0.4666748046875,0.6270751953125,0.73388671875,-0.443359375,0.5302734375,59.5625,-14.9375,19.5625
0,64,340,102,287,231,91,82,41,0.60406494140625,0.1473388671875,-0.4620361328125,0.63232421875,0.7705078125,-0.35009765625,0.51708984375,52.75,-8.8125,14.0625
0,63,209,74,233,159,71,89,33,0.60205078125,0.15203857421875,-0.45843505859375,0.6357421875,0.81591796875,-0.33642578125,0.47265625,39.5,-1.25,9.0
0,58,151,59,211,108,86,110,30,0.6009521484375,0.154296875,-0.45611572265625,0.637939453125,0.7548828125,-0.37646484375,0.5126953125,22.5625,0.0625,5.0625
0,65,123,63,199,97,183,202,39,0.5987548828125,0.15692138671875,-0.45355224609375,0.64117431640625,0.69873046875,-0.4228515625,0.55224609375,29.5625,-5.9375,6.9375
0,67,99,69,194,111,239,230,41,0.59454345703125,0.16156005859375,-0.450927734375,0.645751953125,0.68603515625,-0.42626953125,0.5595703125,42.0,-17.9375,13.4375
0,73,98,68,169,106,240,244,43,0.58843994140625,0.17022705078125,-0.44573974609375,0.6527099609375,0.75146484375,-0.33984375,0.5703125,70.3125,-25.125,21.5625
0,72,104,77,159,122,249,245,47,0.58258056640625,0.17742919921875,-0.4404296875,0.65960693359375,0.82177734375,-0.33251953125,0.4990234375,66.875,-11.6875,25.625
0,78,106,82,157,120,284,264,49,0.57818603515625,0.1810302734375,-0.43634033203125,0.6651611328125,0.7236328125,-0.390625,0.49853515625,48.125,-3.6875,20.3125
0,90,111,82,166,120,245,219,53,0.574951171875,0.18499755859375,-0.43218994140625,0.66961669921875,0.69677734375,-0.39794921875,0.52392578125,45.5,-4.75,10.125
0,89,98,79,157,106,200,196,51,0.572021484375,0.1903076171875,-0.42779541015625,0.6734619140625,0.7607421875,-0.3623046875,0.5908203125,46.5,-10.25,5.9375
0,92,99,81,131,105,210,181,49,0.5699462890625,0.1954345703125,-0.42376708984375,0.67626953125,0.84326171875,-0.28955078125,0.54248046875,39.3125,-3.625,6.0625
0,89,87,71,127,81,215,183,50,0.57025146484375,0.196044921875,-0.421875,0.677001953125,0.79833984375,-0.337890625,0.46142578125,13.1875,13.0,-0.875
0,88,90,68,108,77,178,176,53,0.57177734375,0.1947021484375,-0.41912841796875,0.67779541015625,0.6962890625,-0.38525390625,0.525390625,9.0,19.125,-6.4375
0,81,92,59,81,78,201,181,48,0.5731201171875,0.19476318359375,-0.41546630859375,0.67889404296875,0.69580078125,-0.36181640625,0.6083984375,15.6875,12.8125,-7.9375
0,83,103,54,82,76,220,211,62,0.57440185546875,0.19537353515625,-0.412353515625,0.6795654296875,0.71923828125,-0.32763671875,0.640625,12.4375,7.9375,-7.75
0,88,101,57,67,79,227,263,78,0.57550048828125,0.19635009765625,-0.4095458984375,0.6800537109375,0.728515625,-0.28662109375,0.60595703125,11.8125,7.1875,-5.8125
0,110,104,66,71,86,301,302,80,0.576904296875,0.19757080078125,-0.40643310546875,0.68035888671875,0.74755859375,-0.2666015625,0.583984375,12.75,9.8125,-7.8125
0,127,106,80,71,94,348,320,81,0.57879638671875,0.19622802734375,-0.40460205078125,0.68023681640625,0.71826171875,-0.31201171875,0.6044921875,-0.375,14.4375,-6.625
0,126,118,87,73,93,400,379,90,0.580078125,0.195068359375,-0.4027099609375,0.6806640625,0.7158203125,-0.3076171875,0.60498046875,2.375,13.1875,-2.5
0,141,112,86,64,90,442,376,107,0.58099365234375,0.19439697265625,-0.40069580078125,0.68121337890625,0.71923828125,-0.27294921875,0.62109375,3.4375,10.4375,-0.3125
0,141,127,82,68,86,489,422,120,0.58123779296875,0.1939697265625,-0.3995361328125,0.6817626953125,0.72900390625,-0.248046875,0.599609375,1.25,6.875,4.125
0,150,159,85,62,76,449,409,150,0.581787109375,0.19293212890625,-0.398681640625,0.68212890625,0.72119140625,-0.26904296875,0.59912109375,-2.0,9.0,2.9375
0,157,185,82,66,70,431,423,186,0.58270263671875,0.19091796875,-0.3983154296875,0.68212890625,0.71533203125,-0.31201171875,0.59765625,-6.375,11.25,0.75
0,166,211,79,61,62,383,362,191,0.5836181640625,0.18865966796875,-0.39825439453125,0.6820068359375,0.7109375,-0.33447265625,0.595703125,-7.75,11.25,0.25
0,167,221,87,60,65,339,361,193,0.58447265625,0.1871337890625,-0.398193359375,0.6817626953125,0.7236328125,-0.3017578125,0.59716796875,-7.0625,8.5625,0.5625
0,163,256,101,54,63,277,286,183,0.58447265625,0.18634033203125,-0.398193359375,0.68194580078125,0.73779296875,-0.2978515625,0.5966796875,-3.25,4.9375,4.375
0,177,311,102,55,64,306,290,233,0.58453369140625,0.184814453125,-0.39788818359375,0.6824951171875,0.71435546875,-0.3017578125,0.60302734375,-3.5625,8.125,5.6875
0,187,335,123,48,66,273,237,223,0.5848388671875,0.182861328125,-0.397705078125,0.682861328125,0.68017578125,-0.337890625,0.6201171875,-5.125,7.5625,3.1875
0,217,497,157,55,67,250,230,226,0.5850830078125,0.18115234375,-0.3980712890625,0.682861328125,0.6953125,-0.34716796875,0.60986328125,-6.375,5.625,2.0
0,237,529,160,65,76,222,216,220,0.5859375,0.17950439453125,-0.3984375,0.682373046875,0.71240234375,-0.3740234375,0.5751953125,-6.3125,9.0,-2.8125
0,259,526,170,70,75,193,197,286,0.5867919921875,0.17913818359375,-0.39776611328125,0.68212890625,0.71923828125,-0.31787109375,0.59228515625,-0.1875,6.8125,-3.3125
0,252,499,170,79,83,121,153,240,0.58660888671875,0.17962646484375,-0.39776611328125,0.68212890625,0.6923828125,-0.3173828125,0.62744140625,1.125,-3.625,0.0
0,250,551,165,90,85,118,142,245,0.5858154296875,0.1805419921875,-0.39727783203125,0.682861328125,0.68603515625,-0.29638671875,0.66796875,4.6875,-6.625,4.0
0,219,411,152,90,89,122,144,235,0.5859375,0.18011474609375,-0.397705078125,0.6826171875,0.72119140625,-0.3271484375,0.59375,-3.5625,1.875,0.8125
0,194,375,160,86,86,118,130,232,0.58642578125,0.17974853515625,-0.39703369140625,0.6827392578125,0.68798828125,-0.3095703125,0.59375,0.8125,5.1875,-0.9375
0,266,541,182,111,106,109,108,152,0.58660888671875,0.18023681640625,-0.3953857421875,0.68341064453125,0.7373046875,-0.25830078125,0.6083984375,6.5,6.5625,3.0625
0,256,610,196,104,102,100,108,140,0.5877685546875,0.1781005859375,-0.39483642578125,0.68328857421875,0.7666015625,-0.34375,0.5654296875,-4.375,18.25,-0.1875
0,269,614,194,95,103,90,154,153,0.5885009765625,0.17584228515625,-0.39373779296875,0.683837890625,0.666015625,-0.341796875,0.58349609375,-1.5,15.375,1.5
0,282,682,200,95,99,72,153,162,0.58880615234375,0.17486572265625,-0.39300537109375,0.68426513671875,0.654296875,-0.3564453125,0.689453125,-0.0625,2.25,-0.75
0,295,751,257,110,105,72,159,169,0.58843994140625,0.1744384765625,-0.39312744140625,0.68463134765625,0.64111328125,-0.3671875,0.69580078125,-0.9375,-5.4375,0.8125
0,252,685,272,88,88,70,158,166,0.58868408203125,0.1748046875,-0.39349365234375,0.68408203125,0.705078125,-0.38134765625,0.56787109375,1.8125,0.625,-5.6875
0,289,646,276,92,90,70,157,171,0.59027099609375,0.1751708984375,-0.39208984375,0.6834716796875,0.70068359375,-0.29833984375,0.5732421875,3.6875,9.0625,-8.875
0,279,641,274,93,86,66,94,127,0.59100341796875,0.17608642578125,-0.38995361328125,0.683837890625,0.7080078125,-0.26025390625,0.6611328125,8.25,4.5,-2.6875
0,273,569,298,91,87,67,83,114,0.59063720703125,0.17633056640625,-0.38922119140625,0.6844482421875,0.70556640625,-0.29296875,0.65185546875,3.5,0.4375,4.1875
0,255,476,247,74,75,63,65,102,0.59002685546875,0.17596435546875,-0.389404296875,0.68499755859375,0.6962890625,-0.326171875,0.5849609375,1.125,2.4375,4.9375
0,213,395,210,80,80,69,62,88,0.590576171875,0.17523193359375,-0.38922119140625,0.684814453125,0.701171875,-0.3046875,0.576171875,-2.4375,7.5,-0.1875
0,168,348,195,83,100,76,73,68,0.59088134765625,0.1744384765625,-0.3883056640625,0.685302734375,0.72412109375,-0.28662109375,0.6044921875,0.75,10.1875,3.8125
0,147,249,194,85,102,83,84,74,0.59100341796875,0.173095703125,-0.38751220703125,0.6859130859375,0.69970703125,-0.3662109375,0.62744140625,1.625,9.4375,1.9375
0,147,268,140,84,100,104,103,73,0.59014892578125,0.17242431640625,-0.3865966796875,0.6873779296875,0.63623046875,-0.341796875,0.65625,5.6875,2.0625,6.9375
0,159,288,171,84,99,116,107,81,0.58941650390625,0.1727294921875,-0.38604736328125,0.68817138671875,0.63134765625,-0.3359375,0.703125,4.4375,-5.75,2.4375
0,167,363,177,73,93,113,110,87,0.58984375,0.17291259765625,-0.386474609375,0.68756103515625,0.666015625,-0.33544921875,0.66259765625,-3.0,-4.3125,-4.5625
0,181,399,195,66,66,184,133,125,0.5904541015625,0.17303466796875,-0.3875732421875,0.6864013671875,0.669921875,-0.3544921875,0.6328125,-5.8125,-5.0,-7.5
0,188,389,194,66,84,221,168,144,0.5909423828125,0.17401123046875,-0.3875732421875,0.68572998046875,0.677734375,-0.33447265625,0.6552734375,1.5,-4.875,-7.3125
0,220,393,190,68,110,250,223,172,0.59136962890625,0.17510986328125,-0.3878173828125,0.6849365234375,0.67236328125,-0.32958984375,0.67626953125,-0.25,-8.25,-7.3125
0,263,385,165,63,117,262,226,183,0.5916748046875,0.17626953125,-0.38909912109375,0.68365478515625,0.65087890625,-0.34521484375,0.6767578125,-4.375,-13.625,-9.375
0,266,321,152,60,125,269,225,203,0.592529296875,0.17803955078125,-0.3916015625,0.6810302734375,0.68505859375,-0.32177734375,0.611328125,-10.0625,-16.3125,-14.0
0,250,275,115,55,128,239,247,191,0.59405517578125,0.1800537109375,-0.39434814453125,0.67755126953125,0.69775390625,-0.294921875,0.619140625,-14.3125,-17.6875,-18.5625
0,262,261,109,54,117,227,304,184,0.59515380859375,0.1822509765625,-0.39691162109375,0.67449951171875,0.73193359375,-0.30126953125,0.6181640625,-11.5625,-17.4375,-15.75
0,247,233,108,47,118,219,295,174,0.59625244140625,0.1839599609375,-0.3988037109375,0.67193603515625,0.71337890625,-0.20654296875,0.6328125,-13.375,-14.625,-9.625
0,201,204,97,59,140,208,302,175,0.5982666015625,0.1837158203125,-0.403076171875,0.66766357421875,0.75244140625,-0.18115234375,0.64111328125,-36.125,-14.25,-9.4375
0,226,208,93,63,138,209,323,152,0.60150146484375,0.17950439453125,-0.41058349609375,0.66131591796875,0.72900390625,-0.2197265625,0.61669921875,-66.125,-9.75,-11.375
0,236,211,100,66,139,196,312,197,0.60467529296875,0.1729736328125,-0.42022705078125,0.654052734375,0.71240234375,-0.3330078125,0.58056640625,-79.75,-9.375,-11.6875
0,290,256,112,65,143,187,257,208,0.60736083984375,0.1663818359375,-0.4295654296875,0.647216796875,0.7060546875,-0.37939453125,0.56689453125,-75.625,-8.8125,-10.75
0,277,242,109,68,126,177,246,214,0.60870361328125,0.161376953125,-0.43841552734375,0.6412353515625,0.71044921875,-0.380859375,0.55859375,-65.625,-15.8125,-6.5625
0,283,240,104,63,92,174,261,231,0.60955810546875,0.1575927734375,-0.44683837890625,0.63555908203125,0.7451171875,-0.3759765625,0.55126953125,-59.3125,-18.25,-5.875
0,254,219,107,65,86,173,271,265,0.6107177734375,0.15362548828125,-0.45587158203125,0.62896728515625,0.74365234375,-0.392578125,0.498046875,-63.3125,-18.625,-9.375
0,253,264,106,64,80,175,277,323,0.61138916015625,0.15020751953125,-0.46478271484375,0.62255859375,0.7412109375,-0.43359375,0.4736328125,-58.9375,-20.6875,-10.5
0,162,267,89,61,64,152,257,316,0.6114501953125,0.14794921875,-0.47259521484375,0.61712646484375,0.744140625,-0.43115234375,0.470703125,-47.875,-22.3125,-8.8125
0,163,308,83,59,57,119,267,322,0.61138916015625,0.146728515625,-0.479248046875,0.6123046875,0.76416015625,-0.4033203125,0.46240234375,-40.1875,-21.375,-7.375
0,138,315,86,82,81,110,279,320,0.61175537109375,0.1453857421875,-0.4852294921875,0.6075439453125,0.78466796875,-0.36865234375,0.47216796875,-40.25,-18.0,-6.375
0,148,336,72,85,104,93,274,313,0.61224365234375,0.14306640625,-0.49139404296875,0.60260009765625,0.80224609375,-0.35791015625,0.45068359375,-45.0,-14.0625,-3.3125
0,126,313,71,176,148,82,281,215,0.61322021484375,0.14013671875,-0.49737548828125,0.597412109375,0.779296875,-0.4013671875,0.435546875,-46.25,-10.625,-7.4375
0,116,275,73,180,154,83,283,219,0.61346435546875,0.1370849609375,-0.50299072265625,0.59307861328125,0.7734375,-0.42626953125,0.3994140625,-40.6875,-9.4375,-2.9375
0,102,218,68,183,155,76,256,194,0.61346435546875,0.13555908203125,-0.50750732421875,0.58966064453125,0.8076171875,-0.474609375,0.39111328125,-27.5625,-9.4375,-5.6875
0,103,200,65,175,144,75,260,177,0.613037109375,0.13458251953125,-0.5111083984375,0.587158203125,0.775390625,-0.49169921875,0.43896484375,-20.75,-12.6875,-5.125
0,94,160,65,173,128,72,236,140,0.61212158203125,0.13470458984375,-0.51434326171875,0.58526611328125,0.7900390625,-0.4326171875,0.427734375,-15.3125,-15.625,-0.9375
0,103,102,55,84,69,65,206,141,0.61151123046875,0.13385009765625,-0.51763916015625,0.583251953125,0.78076171875,-0.42431640625,0.44287109375,-20.5625,-13.0625,0.5
0,110,90,58,82,65,62,207,122,0.6114501953125,0.1318359375,-0.520751953125,0.58099365234375,0.76904296875,-0.474609375,0.44580078125,-24.0625,-8.125,-1.6875
0,107,81,65,108,64,58,196,121,0.61114501953125,0.130859375,-0.52288818359375,0.57958984375,0.77001953125,-0.45849609375,0.43798828125,-14.6875,-8.0,-0.875
0,104,76,66,110,57,47,130,97,0.61029052734375,0.1300048828125,-0.5252685546875,0.57855224609375,0.796875,-0.4580078125,0.3984375,-12.5,-7.625,3.125
0,119,74,65,112,61,46,129,88,0.60968017578125,0.1287841796875,-0.5277099609375,0.57720947265625,0.79638671875,-0.4541015625,0.39990234375,-15.6875,-6.875,2.9375
0,116,71,67,121,68,40,119,106,0.609130859375,0.12738037109375,-0.53021240234375,0.57574462890625,0.796875,-0.4697265625,0.3740234375,-15.8125,-5.0,2.125
0,112,75,65,131,63,45,110,105,0.6087646484375,0.1263427734375,-0.5323486328125,0.574462890625,0.78173828125,-0.466796875,0.3798828125,-13.375,-5.375,0.75
0,114,80,71,141,91,44,125,108,0.6080322265625,0.12615966796875,-0.5338134765625,0.5738525390625,0.80859375,-0.45068359375,0.38232421875,-6.5625,-5.875,2.625
0,113,80,97,179,151,50,124,105,0.60821533203125,0.12493896484375,-0.5347900390625,0.5731201171875,0.8193359375,-0.4716796875,0.35400390625,-8.125,3.75,1.4375
0,84,79,103,195,158,47,114,106,0.60955810546875,0.1234130859375,-0.53521728515625,0.57159423828125,0.8125,-0.50341796875,0.32080078125,-8.9375,11.25,-6.25
0,70,85,101,190,155,49,109,78,0.6116943359375,0.12158203125,-0.5357666015625,0.569091796875,0.8046875,-0.51806640625,0.33251953125,-13.75,12.75,-12.625
0,65,81,126,206,171,40,121,76,0.61346435546875,0.120849609375,-0.535888671875,0.56732177734375,0.77685546875,-0.4892578125,0.39697265625,-8.6875,5.5,-11.9375
0,68,75,128,219,171,42,106,59,0.6148681640625,0.120361328125,-0.53570556640625,0.56610107421875,0.7978515625,-0.46875,0.388671875,-5.6875,6.25,-7.875
0,69,84,124,259,182,40,106,60,0.61676025390625,0.1201171875,-0.53448486328125,0.565185546875,0.794921875,-0.4501953125,0.435546875,-2.4375,8.125,-9.125
0,65,84,123,269,179,42,109,47,0.619384765625,0.11859130859375,-0.5333251953125,0.563720703125,0.8037109375,-0.4677734375,0.40234375,-7.3125,16.25,-10.375
0,69,83,133,278,183,39,101,55,0.6221923828125,0.116943359375,-0.53216552734375,0.5621337890625,0.76513671875,-0.4296875,0.4169921875,-10.1875,15.4375,-9.9375
0,67,76,113,289,169,40,78,47,0.6248779296875,0.11614990234375,-0.5308837890625,0.56048583984375,0.80078125,-0.412109375,0.43017578125,-7.0,13.5,-10.6875
0,59,91,117,396,194,40,68,46,0.627197265625,0.11334228515625,-0.53076171875,0.55859375,0.79150390625,-0.48681640625,0.390625,-15.375,16.0625,-8.0
0,64,92,103,427,193,46,65,46,0.62939453125,0.11224365234375,-0.52947998046875,0.55755615234375,0.78564453125,-0.43505859375,0.4345703125,-5.5,12.8125,-7.4375
0,64,93,108,430,195,46,43,46,0.632080078125,0.10968017578125,-0.52911376953125,0.55535888671875,0.79296875,-0.49951171875,0.36376953125,-13.5,19.125,-11.6875
0,57,107,114,465,236,51,40,34,0.63482666015625,0.10784912109375,-0.52783203125,0.5538330078125,0.763671875,-0.43701171875,0.4560546875,-10.3125,15.0625,-9.875
0,57,112,114,500,274,57,49,27,0.63702392578125,0.10589599609375,-0.52685546875,0.55255126953125,0.7802734375,-0.47119140625,0.4296875,-9.0,14.875,-7.875
0,73,134,135,558,346,68,55,33,0.63909912109375,0.10418701171875,-0.52642822265625,0.55096435546875,0.80126953125,-0.47265625,0.40087890625,-9.3125,13.9375,-8.4375
0,74,136,139,550,375,77,62,33,0.6417236328125,0.10467529296875,-0.52423095703125,0.5499267578125,0.841796875,-0.3935546875,0.380859375,3.875,18.0625,-10.6875
0,75,135,134,563,382,79,61,36,0.64459228515625,0.10009765625,-0.524169921875,0.54742431640625,0.703125,-0.5390625,0.3828125,-21.4375,21.625,-12.4375
0,75,128,127,574,369,81,61,38,0.645751953125,0.09942626953125,-0.522705078125,0.547607421875,0.70458984375,-0.48095703125,0.52197265625,0.0,3.875,-6.125
0,82,138,140,566,348,97,55,41,0.646240234375,0.1016845703125,-0.52056884765625,0.548583984375,0.8154296875,-0.44775390625,0.46044921875,17.375,2.4375,-5.4375
0,80,141,150,522,296,97,55,43,0.6474609375,0.101318359375,-0.5196533203125,0.54815673828125,0.74755859375,-0.4951171875,0.34716796875,4.125,11.9375,-8.8125
0,83,139,151,499,235,88,52,42,0.6484375,0.1016845703125,-0.51788330078125,0.548583984375,0.728515625,-0.5439453125,0.35498046875,13.625,11.625,-11.6875
0,84,148,164,481,245,91,55,43,0.64813232421875,0.10455322265625,-0.51446533203125,0.5516357421875,0.72998046875,-0.5400390625,0.419921875,34.6875,4.375,-5.5
0,89,191,167,505,240,89,55,42,0.64599609375,0.11181640625,-0.5079345703125,0.5587158203125,0.79833984375,-0.43994140625,0.4912109375,69.25,-2.0625,7.125
0,85,199,154,485,240,95,59,40,0.64337158203125,0.11981201171875,-0.50079345703125,0.56646728515625,0.81201171875,-0.39013671875,0.46337890625,76.25,-0.375,11.75
0,77,210,130,378,187,98,60,34,0.6409912109375,0.125732421875,-0.4945068359375,0.5733642578125,0.7587890625,-0.3701171875,0.49462890625,61.9375,0.125,12.875
0,76,240,126,354,178,129,74,35,0.638916015625,0.1314697265625,-0.48797607421875,0.57989501953125,0.74853515625,-0.37890625,0.54443359375,60.25,0.1875,10.25
0,74,241,111,348,147,140,73,33,0.6375732421875,0.13653564453125,-0.48284912109375,0.58453369140625,0.76953125,-0.37939453125,0.50830078125,48.875,0.375,3.8125
0,71,216,102,226,127,143,80,32,0.63702392578125,0.14129638671875,-0.478271484375,0.5877685546875,0.78955078125,-0.3271484375,0.49951171875,40.1875,2.375,0.25
0,72,208,99,185,104,142,78,34,0.63641357421875,0.1451416015625,-0.4747314453125,0.59033203125,0.83154296875,-0.32080078125,0.46435546875,32.625,4.875,2.3125
0,82,176,73,173,95,141,100,37,0.63543701171875,0.14752197265625,-0.4720458984375,0.59295654296875,0.8017578125,-0.361328125,0.47412109375,26.125,4.3125,5.6875
0,78,129,64,152,114,118,111,37,0.633544921875,0.15008544921875,-0.46881103515625,0.59686279296875,0.759765625,-0.365234375,0.546875,31.25,-1.0,10.75
0,80,124,60,149,115,117,124,38,0.63037109375,0.15338134765625,-0.46490478515625,0.6024169921875,0.78515625,-0.3388671875,0.5087890625,42.375,0.1875,20.875
0,83,106,51,137,112,114,122,39,0.6270751953125,0.15826416015625,-0.45928955078125,0.60888671875,0.8056640625,-0.25634765625,0.51025390625,53.6875,2.5,23.5
0,90,89,50,175,142,113,127,41,0.6226806640625,0.16156005859375,-0.45465087890625,0.615966796875,0.78759765625,-0.3583984375,0.4970703125,51.5625,2.9375,28.125
0,78,83,50,172,153,113,107,37,0.61749267578125,0.16461181640625,-0.44976806640625,0.6239013671875,0.7314453125,-0.40185546875,0.51220703125,55.875,0.6875,31.25
0,80,105,54,191,141,158,148,40,0.61151123046875,0.16949462890625,-0.44366455078125,0.63275146484375,0.73681640625,-0.388671875,0.5244140625,69.5625,-2.3125,31.875
0,86,121,57,205,149,151,144,42,0.60595703125,0.1766357421875,-0.43560791015625,0.6417236328125,0.73388671875,-0.32080078125,0.57080078125,81.125,-4.625,26.375
0,86,148,66,212,165,184,150,45,0.60052490234375,0.1834716796875,-0.42889404296875,0.64935302734375,0.7958984375,-0.32275390625,0.53662109375,72.8125,-4.5,24.5
0,79,164,73,177,157,194,171,46,0.5965576171875,0.18817138671875,-0.42388916015625,0.6549072265625,0.78173828125,-0.32958984375,0.50927734375,54.125,0.125,17.75
0,100,190,78,174,157,375,265,61,0.593017578125,0.19207763671875,-0.41864013671875,0.660400390625,0.7021484375,-0.34521484375,0.56982421875,50.8125,-1.25,14.75
0,97,197,79,145,149,369,252,60,0.59014892578125,0.19573974609375,-0.41357421875,0.66510009765625,0.6923828125,-0.33740234375,0.6123046875,46.1875,-2.3125,10.0625
0,96,244,78,100,136,375,257,61,0.58770751953125,0.1998291015625,-0.4090576171875,0.66876220703125,0.73828125,-0.2939453125,0.62890625,40.625,-4.6875,7.5625
0,99,238,81,83,129,414,274,72,0.58636474609375,0.20330810546875,-0.40472412109375,0.67156982421875,0.79150390625,-0.22021484375,0.56689453125,33.4375,4.375,7.125
0,111,245,80,85,117,413,272,77,0.586181640625,0.2037353515625,-0.40240478515625,0.6729736328125,0.7529296875,-0.26708984375,0.55517578125,13.1875,9.5,3.625
0,121,247,87,76,113,283,204,74,0.58648681640625,0.2025146484375,-0.40057373046875,0.6741943359375,0.65380859375,-0.31494140625,0.63037109375,4.9375,7.625,1.125
0,128,236,89,79,109,289,224,79,0.5869140625,0.2020263671875,-0.3992919921875,0.6746826171875,0.7021484375,-0.31201171875,0.64306640625,3.4375,3.5625,-1.6875
0,133,187,95,84,113,312,293,132,0.5877685546875,0.2015380859375,-0.39910888671875,0.6741943359375,0.73828125,-0.279296875,0.623046875,-4.4375,2.5625,-3.0625
0,161,179,92,75,95,282,340,131,0.58892822265625,0.2008056640625,-0.39935302734375,0.67327880859375,0.7353515625,-0.25830078125,0.61181640625,-9.0,2.625,-3.625
0,180,173,95,73,102,407,365,168,0.58966064453125,0.1998291015625,-0.40032958984375,0.67236328125,0.72509765625,-0.27685546875,0.59521484375,-11.0625,0.4375,-1.375
0,176,155,92,66,88,478,385,183,0.5899658203125,0.19915771484375,-0.40069580078125,0.67205810546875,0.7294921875,-0.28515625,0.64013671875,-6.5625,-0.75,0.4375
0,201,156,102,66,89,501,418,209,0.58978271484375,0.1983642578125,-0.4017333984375,0.671875,0.71044921875,-0.28076171875,0.59765625,-7.75,-2.4375,3.75
0,262,141,99,72,89,569,491,330,0.58978271484375,0.19757080078125,-0.40283203125,0.67144775390625,0.75732421875,-0.27734375,0.5751953125,-8.8125,0.6875,3.625
0,257,174,108,85,97,600,474,356,0.5894775390625,0.19696044921875,-0.4039306640625,0.67120361328125,0.74072265625,-0.298828125,0.57861328125,-6.8125,-1.3125,3.625
0,248,214,108,89,91,573,550,409,0.588623046875,0.1966552734375,-0.40557861328125,0.67108154296875,0.7216796875,-0.296875,0.58642578125,-7.125,-7.0625,5.8125
0,310,229,117,101,101,527,639,451,0.58843994140625,0.19610595703125,-0.40753173828125,0.67010498046875,0.794921875,-0.29931640625,0.5556640625,-11.4375,-2.0,2.875
0,320,265,112,106,105,521,631,449,0.58868408203125,0.19476318359375,-0.40936279296875,0.66925048828125,0.7490234375,-0.3427734375,0.5458984375,-11.75,1.125,0.25
0,279,307,118,101,107,476,631,444,0.58837890625,0.194580078125,-0.4097900390625,0.66925048828125,0.74755859375,-0.30712890625,0.53662109375,-1.3125,1.3125,2.75
0,286,297,117,98,109,450,636,472,0.58843994140625,0.1947021484375,-0.4097900390625,0.66925048828125,0.74658203125,-0.27734375,0.5693359375,0.5,-0.0625,0.9375
0,297,303,145,92,101,388,561,472,0.5885009765625,0.1939697265625,-0.4107666015625,0.66876220703125,0.74609375,-0.30859375,0.56298828125,-7.375,0.625,1.8125
0,253,303,157,83,92,370,465,493,0.58880615234375,0.1927490234375,-0.41156005859375,0.66839599609375,0.724609375,-0.35498046875,0.56298828125,-6.875,2.5,-0.75
0,235,270,156,80,94,346,452,494,0.5888671875,0.1923828125,-0.41180419921875,0.66827392578125,0.71044921875,-0.35107421875,0.57421875,-0.9375,-0.1875,-1.8125
0,240,253,163,88,192,283,329,424,0.589111328125,0.1925048828125,-0.41143798828125,0.668212890625,0.7265625,-0.3203125,0.58544921875,1.25,0.6875,-1.875
0,216,260,161,102,214,222,295,373,0.5892333984375,0.19207763671875,-0.41009521484375,0.66912841796875,0.72216796875,-0.2578125,0.595703125,3.0,6.5,5.0
0,190,212,137,104,217,207,301,300,0.58941650390625,0.19134521484375,-0.41021728515625,0.6690673828125,0.767578125,-0.28076171875,0.5322265625,-3.8125,6.9375,3.5625
0,153,188,119,164,226,180,258,174,0.5892333984375,0.1903076171875,-0.41009521484375,0.6695556640625,0.73681640625,-0.36279296875,0.57568359375,0.0,5.125,2.875
0,128,191,131,200,244,148,218,141,0.5885009765625,0.19036865234375,-0.40948486328125,0.67059326171875,0.70654296875,-0.3173828125,0.58837890625,5.75,-0.0625,5.1875
0,93,148,135,267,356,143,195,112,0.58740234375,0.19097900390625,-0.40948486328125,0.67132568359375,0.7060546875,-0.31005859375,0.5966796875,4.0,-5.625,5.3125
0,100,135,162,265,363,170,193,99,0.58685302734375,0.191650390625,-0.40869140625,0.672119140625,0.755859375,-0.27294921875,0.541015625,6.75,2.8125,5.5
0,128,133,160,271,376,178,155,79,0.58709716796875,0.19134521484375,-0.4072265625,0.67291259765625,0.7783203125,-0.33837890625,0.5478515625,7.625,12.0,0.75
0,123,129,168,260,388,175,132,65,0.5869140625,0.19146728515625,-0.40545654296875,0.674072265625,0.6640625,-0.37646484375,0.65087890625,11.375,0.625,-2.0
0,119,128,183,262,395,181,122,61,0.58489990234375,0.1934814453125,-0.40411376953125,0.67608642578125,0.63037109375,-0.3125,0.66796875,16.875,-13.5625,6.4375
0,116,146,180,195,265,160,118,55,0.58416748046875,0.1959228515625,-0.4039306640625,0.6761474609375,0.77783203125,-0.24951171875,0.5517578125,7.75,-6.6875,1.75
0,111,128,171,200,240,116,71,49,0.58538818359375,0.1953125,-0.404296875,0.67498779296875,0.78759765625,-0.33251953125,0.5390625,-5.375,7.625,-6.625
0,103,147,272,213,228,93,57,47,0.5865478515625,0.193359375,-0.40411376953125,0.6746826171875,0.740234375,-0.35302734375,0.58154296875,-6.25,11.5625,-2.875
0,104,157,296,260,203,84,50,44,0.58740234375,0.192138671875,-0.40380859375,0.67449951171875,0.7236328125,-0.310546875,0.576171875,-4.0,8.4375,-0.875
0,102,210,312,247,166,63,43,42,0.58905029296875,0.19073486328125,-0.4039306640625,0.67340087890625,0.716796875,-0.26904296875,0.6259765625,-12.1875,5.5625,-4.5625
0,101,274,333,251,133,59,38,43,0.59161376953125,0.1876220703125,-0.40618896484375,0.670654296875,0.74560546875,-0.2802734375,0.59912109375,-30.4375,7.625,-7.0
0,101,342,349,244,120,54,38,43,0.59552001953125,0.18218994140625,-0.409912109375,0.6663818359375,0.73974609375,-0.3056640625,0.58203125,-47.375,14.1875,-11.625
0,77,435,292,224,93,47,39,39,0.599853515625,0.1756591796875,-0.413330078125,0.662109375,0.71875,-0.357421875,0.580078125,-48.75,19.1875,-13.25
0,77,457,273,131,72,42,40,39,0.6041259765625,0.16912841796875,-0.415771484375,0.65838623046875,0.71533203125,-0.38623046875,0.59326171875,-42.9375,22.625,-13.6875
0,87,515,242,118,66,40,40,43,0.60943603515625,0.16217041015625,-0.4178466796875,0.6539306640625,0.70556640625,-0.34326171875,0.58740234375,-47.875,26.9375,-17.125
