,channel 1,channel 2,channel 3,channel 4,channel 5,channel 6,channel 7,channel 8,channel 9,channel 10,channel 11,channel 12,channel 13,channel 14,channel 15,channel 16,channel 17,channel 18
0,20,15,21,26,20,19,21,49,-0.17730712890625,-0.47857666015625,-0.26214599609375,0.81903076171875,-0.8701171875,-0.24658203125,0.41357421875,12.125,23.8125,35.0
0,21,18,22,27,21,21,19,27,-0.1834716796875,-0.47454833984375,-0.2550048828125,0.822265625,-0.3466796875,-0.04345703125,1.29052734375,-4.0625,24.375,35.8125
0,23,20,24,27,20,22,21,23,-0.186767578125,-0.48663330078125,-0.25811767578125,0.8134765625,-1.40966796875,-0.39990234375,-0.24169921875,-8.3125,24.9375,35.4375
0,23,20,24,25,21,25,23,24,-0.1923828125,-0.4898681640625,-0.25836181640625,0.81011962890625,-0.8828125,-0.28076171875,0.505859375,-18.75,24.4375,37.125
0,22,23,25,24,22,25,23,26,-0.19781494140625,-0.494140625,-0.2581787109375,0.8062744140625,-0.94482421875,-0.1962890625,0.3349609375,-15.5,18.0625,34.0
0,22,25,25,22,22,25,24,25,-0.202880859375,-0.49810791015625,-0.25872802734375,0.8023681640625,-0.93115234375,-0.20556640625,0.3369140625,-17.8125,19.6875,31.0
0,23,26,24,21,22,25,25,24,-0.20782470703125,-0.50164794921875,-0.260009765625,0.7984619140625,-0.93212890625,-0.18994140625,0.330078125,-21.5,19.25,27.5625
0,25,26,25,22,25,25,26,26,-0.21221923828125,-0.50506591796875,-0.2613525390625,0.79473876953125,-0.99658203125,-0.1796875,0.3154296875,-20.5,16.8125,23.125
0,26,27,24,24,27,25,24,26,-0.2178955078125,-0.499267578125,-0.25970458984375,0.79736328125,-0.3388671875,-0.1064453125,1.0625,-24.25,14.25,20.5625
0,26,26,25,26,27,24,25,26,-0.2205810546875,-0.50006103515625,-0.2611083984375,0.795654296875,-0.869140625,-0.2158203125,0.474609375,-16.625,14.5,13.3125
0,28,26,24,26,26,27,26,26,-0.2252197265625,-0.4959716796875,-0.25982666015625,0.79736328125,-0.4921875,-0.02294921875,0.9189453125,-21.875,13.5625,11.1875
0,27,26,21,26,27,28,26,26,-0.224853515625,-0.50390625,-0.26434326171875,0.791015625,-1.2421875,-0.28857421875,-0.2763671875,-7.75,11.6875,7.4375
0,26,25,20,26,24,27,23,25,-0.22259521484375,-0.5133056640625,-0.26922607421875,0.78387451171875,-1.4130859375,-0.3984375,-0.43994140625,0.875,11.375,5.5625
0,24,23,20,25,22,24,23,24,-0.2230224609375,-0.511962890625,-0.26763916015625,0.78521728515625,-0.75927734375,-0.2021484375,0.6474609375,2.0625,11.625,6.0
0,22,22,19,23,19,25,23,22,-0.22589111328125,-0.5047607421875,-0.26171875,0.791015625,-0.34765625,-0.0224609375,1.27783203125,1.6875,12.25,8.4375
0,19,21,20,24,18,23,19,20,-0.22564697265625,-0.50848388671875,-0.2608642578125,0.78900146484375,-0.90576171875,-0.1728515625,0.1923828125,8.0625,11.9375,9.3125
0,19,19,21,24,18,19,21,20,-0.22271728515625,-0.5205078125,-0.2646484375,0.7806396484375,-1.47607421875,-0.3701171875,-0.6435546875,11.3125,12.5625,9.5625
0,18,20,20,25,18,20,24,21,-0.22332763671875,-0.52020263671875,-0.26287841796875,0.78131103515625,-0.8193359375,-0.2080078125,0.58740234375,3.8125,13.25,9.8125
0,18,21,21,26,20,22,26,21,-0.223388671875,-0.524169921875,-0.26324462890625,0.77850341796875,-1.2578125,-0.24462890625,0.27294921875,1.0,17.0,9.25
0,19,23,22,27,22,22,26,20,-0.22418212890625,-0.5262451171875,-0.2633056640625,0.77679443359375,-0.88427734375,-0.19482421875,0.328125,-2.4375,15.5625,10.875
0,20,21,21,26,22,22,27,23,-0.22576904296875,-0.528076171875,-0.26324462890625,0.775146484375,-0.9326171875,-0.1533203125,0.29833984375,-4.75,10.25,10.9375
0,20,22,21,26,23,25,27,23,-0.2274169921875,-0.52935791015625,-0.2633056640625,0.7738037109375,-0.93310546875,-0.1669921875,0.31298828125,-6.0625,8.4375,10.75
0,20,22,22,24,23,24,27,23,-0.22900390625,-0.5303955078125,-0.26361083984375,0.77252197265625,-0.927734375,-0.1689453125,0.318359375,-6.8125,8.125,10.0625
0,19,19,26,24,28,27,27,26,-0.2325439453125,-0.52581787109375,-0.2618408203125,0.77520751953125,-0.4990234375,-0.12158203125,0.76220703125,-10.875,3.0,12.5625
0,23,26,32,24,32,32,27,27,-0.23583984375,-0.5238037109375,-0.2591552734375,0.77642822265625,-0.66015625,0.0126953125,0.63818359375,-6.0625,5.9375,9.875
0,24,27,34,26,35,35,30,28,-0.234375,-0.53033447265625,-0.26239013671875,0.7713623046875,-1.3740234375,-0.33251953125,-0.25537109375,0.8125,4.5625,7.375
0,28,31,34,25,36,34,31,31,-0.23779296875,-0.523681640625,-0.25860595703125,0.776123046875,-0.509765625,-0.03857421875,1.0517578125,-5.8125,3.625,6.875
0,29,32,35,28,36,37,31,33,-0.24090576171875,-0.5194091796875,-0.2557373046875,0.7789306640625,-0.53466796875,-0.01123046875,0.7744140625,-6.1875,2.0625,7.625
0,31,35,31,28,32,36,30,33,-0.23974609375,-0.52587890625,-0.2584228515625,0.77410888671875,-1.2890625,-0.248046875,-0.3046875,2.0,0.0,5.8125
0,29,31,26,26,28,33,30,33,-0.237548828125,-0.53265380859375,-0.2618408203125,0.7689208984375,-1.412109375,-0.3271484375,-0.37158203125,3.9375,-0.8125,3.9375
0,28,30,24,26,26,32,28,31,-0.2393798828125,-0.52734375,-0.259033203125,0.77294921875,-0.65966796875,-0.091796875,0.8359375,-1.125,-1.4375,2.1875
0,24,27,23,27,23,31,25,28,-0.2425537109375,-0.5198974609375,-0.25482177734375,0.77838134765625,-0.42578125,0.01953125,1.03369140625,-4.125,-2.25,2.5625
0,22,26,22,27,22,28,24,26,-0.2410888671875,-0.5244140625,-0.25689697265625,0.775146484375,-1.185546875,-0.212890625,-0.1796875,3.4375,-3.6875,0.3125
0,24,24,23,27,22,26,24,25,-0.23968505859375,-0.5274658203125,-0.25799560546875,0.773193359375,-1.39453125,-0.232421875,0.10546875,4.4375,-0.75,-1.3125
0,23,24,24,28,21,26,25,24,-0.2391357421875,-0.52789306640625,-0.25677490234375,0.7734375,-0.974609375,-0.115234375,0.2197265625,8.25,-6.75,-0.8125
0,24,23,26,29,21,22,25,24,-0.238525390625,-0.52764892578125,-0.256591796875,0.77386474609375,-0.91650390625,-0.171875,0.2861328125,3.75,-2.9375,-1.0625
0,24,23,26,27,24,22,26,26,-0.2379150390625,-0.52752685546875,-0.25634765625,0.77423095703125,-0.92529296875,-0.15576171875,0.2705078125,3.9375,-3.3125,-2.125
0,25,23,26,27,23,21,27,26,-0.2371826171875,-0.52734375,-0.2562255859375,0.77459716796875,-0.92431640625,-0.16162109375,0.27734375,3.8125,-3.25,-2.625
0,21,21,26,26,22,23,26,26,-0.23712158203125,-0.52484130859375,-0.255859375,0.77642822265625,-0.685546875,-0.1630859375,0.45751953125,-0.25,-2.4375,-1.6875
0,21,20,27,26,24,21,23,25,-0.234130859375,-0.52886962890625,-0.25927734375,0.7734375,-1.23193359375,-0.3583984375,-0.19970703125,4.8125,-3.75,-3.1875
0,21,19,28,23,23,21,21,25,-0.2337646484375,-0.52972412109375,-0.2591552734375,0.7730712890625,-0.8828125,-0.07958984375,0.16552734375,1.9375,-2.6875,-3.875
0,21,21,31,27,22,22,21,23,-0.22930908203125,-0.53826904296875,-0.26318359375,0.76708984375,-1.4970703125,-0.3408203125,-0.6015625,11.75,-2.5,-5.5
0,21,23,33,25,28,28,25,28,-0.22882080078125,-0.53448486328125,-0.2603759765625,0.77081298828125,-0.818359375,-0.13427734375,0.7001953125,9.4375,-1.4375,-4.1875
0,25,29,37,28,31,32,28,31,-0.23065185546875,-0.525634765625,-0.25439453125,0.7783203125,-0.35302734375,0.03125,1.20947265625,7.0,-1.25,-2.3125
0,28,30,38,27,32,33,31,32,-0.22845458984375,-0.52801513671875,-0.25323486328125,0.77777099609375,-0.984375,-0.1552734375,0.091796875,16.25,-1.625,-2.625
0,29,33,34,27,34,35,33,32,-0.22296142578125,-0.53765869140625,-0.2552490234375,0.77203369140625,-1.49365234375,-0.34716796875,-0.61865234375,25.9375,-1.5,-2.5
0,29,33,32,27,34,36,34,33,-0.22125244140625,-0.5357666015625,-0.25115966796875,0.77520751953125,-0.91748046875,-0.1640625,0.60107421875,22.5625,-0.25,-0.6875
0,29,33,28,28,30,34,33,31,-0.22283935546875,-0.52740478515625,-0.2437744140625,0.78277587890625,-0.36279296875,0.0625,1.24658203125,13.9375,1.0,0.5
0,24,29,24,26,28,30,30,27,-0.21942138671875,-0.5341796875,-0.24542236328125,0.77862548828125,-1.40771484375,-0.3232421875,-0.2587890625,15.4375,1.9375,0.875
0,22,29,22,26,26,28,29,29,-0.2188720703125,-0.5333251953125,-0.244384765625,0.77972412109375,-0.9111328125,-0.19580078125,0.47021484375,6.125,3.1875,1.75
0,20,28,24,26,24,27,27,29,-0.2183837890625,-0.53369140625,-0.24237060546875,0.78021240234375,-0.95703125,-0.1064453125,0.29638671875,10.9375,-3.125,1.0625
0,21,26,24,26,23,25,25,28,-0.2176513671875,-0.5340576171875,-0.240478515625,0.78076171875,-0.9599609375,-0.10595703125,0.298828125,11.25,-2.875,-0.5
0,20,27,26,23,24,23,24,26,-0.21722412109375,-0.5338134765625,-0.23907470703125,0.781494140625,-0.93212890625,-0.07568359375,0.298828125,7.0,-5.625,-3.375
0,23,28,24,26,24,23,25,25,-0.2169189453125,-0.53289794921875,-0.238525390625,0.7823486328125,-0.94482421875,-0.07275390625,0.30224609375,2.0625,-8.3125,-6.625
0,24,27,24,25,25,22,24,23,-0.216796875,-0.531494140625,-0.2388916015625,0.783203125,-0.95361328125,-0.0673828125,0.29248046875,-3.5,-10.4375,-9.8125
0,25,28,26,27,25,21,24,23,-0.21697998046875,-0.52947998046875,-0.2401123046875,0.7841796875,-0.95068359375,-0.056640625,0.29541015625,-9.0625,-13.0625,-13.1875
0,26,27,27,26,27,22,24,25,-0.21734619140625,-0.52679443359375,-0.24237060546875,0.78521728515625,-0.9384765625,-0.060546875,0.29833984375,-14.8125,-14.8125,-16.3125
0,26,25,28,27,26,21,22,24,-0.21759033203125,-0.5238037109375,-0.245361328125,0.78619384765625,-0.93701171875,-0.07861328125,0.29248046875,-18.125,-15.9375,-18.6875
0,24,24,29,25,27,22,21,24,-0.217529296875,-0.52044677734375,-0.24822998046875,0.78753662109375,-0.93115234375,-0.09765625,0.30126953125,-16.1875,-17.5,-19.625
0,24,25,29,25,27,23,22,24,-0.217041015625,-0.51727294921875,-0.2506103515625,0.78900146484375,-0.92578125,-0.111328125,0.302734375,-12.3125,-17.625,-19.75
0,23,24,28,25,26,24,22,26,-0.2164306640625,-0.514404296875,-0.2523193359375,0.79046630859375,-0.923828125,-0.09765625,0.3046875,-8.6875,-16.8125,-18.75
0,21,26,28,25,24,24,22,22,-0.21588134765625,-0.51190185546875,-0.253662109375,0.79180908203125,-0.92236328125,-0.09228515625,0.30859375,-7.3125,-15.4375,-17.5625
0,22,27,28,25,24,26,24,22,-0.215576171875,-0.5093994140625,-0.255126953125,0.7930908203125,-0.8818359375,-0.10107421875,0.32373046875,-8.6875,-13.75,-15.9375
0,24,27,28,23,24,26,23,23,-0.2154541015625,-0.507080078125,-0.25689697265625,0.7940673828125,-0.85693359375,-0.12548828125,0.31982421875,-10.375,-11.75,-13.875
0,22,26,27,23,24,25,23,24,-0.21563720703125,-0.50506591796875,-0.258544921875,0.79473876953125,-0.8515625,-0.13818359375,0.3212890625,-10.625,-10.0625,-10.5
0,22,27,27,22,26,25,23,22,-0.21636962890625,-0.5032958984375,-0.2601318359375,0.79510498046875,-0.8359375,-0.1416015625,0.3271484375,-11.75,-8.375,-6.875
0,23,26,28,23,27,24,24,24,-0.21783447265625,-0.50177001953125,-0.261962890625,0.79510498046875,-0.83642578125,-0.1455078125,0.33349609375,-15.4375,-6.375,-3.125
0,23,25,26,24,27,23,22,24,-0.2200927734375,-0.50054931640625,-0.264404296875,0.79443359375,-0.841796875,-0.15234375,0.32861328125,-21.125,-4.3125,0.3125
0,22,25,27,26,35,22,21,23,-0.22314453125,-0.4996337890625,-0.26739501953125,0.79315185546875,-0.8505859375,-0.158203125,0.32568359375,-26.125,-2.0,3.5625
0,24,25,28,26,35,24,22,23,-0.22674560546875,-0.4989013671875,-0.27081298828125,0.79144287109375,-0.86962890625,-0.177734375,0.32861328125,-29.5625,-0.125,6.75
0,23,24,28,25,34,24,23,24,-0.230712890625,-0.49853515625,-0.274169921875,0.78936767578125,-0.888671875,-0.19287109375,0.32470703125,-30.375,1.25,9.875
0,24,26,26,24,34,23,21,24,-0.23480224609375,-0.498291015625,-0.27734375,0.78717041015625,-0.88525390625,-0.20556640625,0.32470703125,-29.375,2.25,12.5625
0,24,26,28,22,37,24,19,24,-0.23907470703125,-0.4984130859375,-0.28033447265625,0.78472900390625,-0.8994140625,-0.208984375,0.326171875,-28.9375,3.6875,14.75
0,22,26,29,22,28,24,21,25,-0.24346923828125,-0.4989013671875,-0.283203125,0.78204345703125,-0.9228515625,-0.21630859375,0.32177734375,-28.5,5.1875,17.0625
0,23,27,29,22,27,23,23,23,-0.2479248046875,-0.49951171875,-0.28564453125,0.7794189453125,-0.92041015625,-0.21630859375,0.32373046875,-26.4375,5.5625,19.0
0,24,26,29,23,27,20,22,24,-0.25201416015625,-0.50018310546875,-0.28765869140625,0.77691650390625,-0.90576171875,-0.23486328125,0.3193359375,-22.75,5.9375,19.9375
0,23,23,29,23,27,21,22,24,-0.25567626953125,-0.501220703125,-0.2890625,0.7745361328125,-0.91162109375,-0.2509765625,0.310546875,-17.625,6.375,21.0625
0,22,22,27,24,25,19,23,24,-0.25885009765625,-0.502685546875,-0.2894287109375,0.7723388671875,-0.9228515625,-0.25927734375,0.29931640625,-10.0,6.375,23.5625
0,22,23,26,23,25,19,25,22,-0.26190185546875,-0.5045166015625,-0.28863525390625,0.77044677734375,-0.92578125,-0.23388671875,0.29736328125,-4.4375,5.5625,25.125
0,21,22,25,22,25,20,22,23,-0.26513671875,-0.50640869140625,-0.287841796875,0.76837158203125,-0.91650390625,-0.20263671875,0.27587890625,-5.1875,5.25,24.8125
0,20,23,23,21,26,20,24,22,-0.26873779296875,-0.50811767578125,-0.28802490234375,0.76593017578125,-0.92333984375,-0.18701171875,0.2646484375,-11.4375,5.75,23.0625
0,20,25,23,22,26,22,25,21,-0.2725830078125,-0.50958251953125,-0.28936767578125,0.7630615234375,-0.94775390625,-0.18994140625,0.25439453125,-18.4375,6.375,21.5
0,22,28,24,20,26,23,25,20,-0.276611328125,-0.51080322265625,-0.291259765625,0.7601318359375,-0.966796875,-0.193359375,0.26806640625,-21.8125,6.8125,20.375
0,23,27,24,20,26,22,23,19,-0.28057861328125,-0.5118408203125,-0.29339599609375,0.757080078125,-0.94091796875,-0.17724609375,0.259765625,-23.4375,7.3125,18.6875
0,24,26,26,23,26,21,24,20,-0.2841796875,-0.512451171875,-0.29595947265625,0.75433349609375,-0.87890625,-0.17138671875,0.267578125,-24.8125,7.8125,15.375
0,25,25,27,23,25,23,23,21,-0.287109375,-0.5128173828125,-0.29901123046875,0.7518310546875,-0.84228515625,-0.193359375,0.27490234375,-24.4375,9.8125,11.9375
0,24,23,27,23,23,21,23,23,-0.28887939453125,-0.51348876953125,-0.30194091796875,0.74945068359375,-0.86328125,-0.2314453125,0.27001953125,-19.0625,11.8125,10.0
0,24,21,28,26,21,23,22,24,-0.28948974609375,-0.5150146484375,-0.303466796875,0.74761962890625,-0.89697265625,-0.2451171875,0.27099609375,-7.125,13.5,10.0
0,24,21,27,27,20,24,22,25,-0.2886962890625,-0.517578125,-0.30322265625,0.7462158203125,-0.9228515625,-0.2373046875,0.25927734375,7.375,15.25,10.0625
0,23,19,27,25,21,25,22,28,-0.286865234375,-0.521240234375,-0.3016357421875,0.74505615234375,-0.935546875,-0.212890625,0.24267578125,17.6875,17.75,9.5
0,23,21,26,25,22,23,22,26,-0.28436279296875,-0.5257568359375,-0.29937744140625,0.74371337890625,-0.94970703125,-0.1806640625,0.2158203125,23.3125,20.1875,8.375
0,24,21,27,25,23,25,21,26,-0.28155517578125,-0.530517578125,-0.29693603515625,0.74237060546875,-0.95166015625,-0.140625,0.208984375,24.5,22.0625,5.5625
0,23,21,25,25,23,24,25,27,-0.27874755859375,-0.53509521484375,-0.29498291015625,0.74090576171875,-0.943359375,-0.10546875,0.212890625,21.6875,22.8125,1.8125
0,23,21,26,24,23,23,24,25,-0.27606201171875,-0.53887939453125,-0.29400634765625,0.73956298828125,-0.92138671875,-0.109375,0.2236328125,16.0,22.3125,-1.5625
0,23,22,24,25,23,25,25,20,-0.27337646484375,-0.54193115234375,-0.2943115234375,0.73822021484375,-0.935546875,-0.1484375,0.228515625,9.75,21.6875,-4.1875
0,24,21,23,23,23,24,23,21,-0.27032470703125,-0.5443115234375,-0.29486083984375,0.73736572265625,-0.95166015625,-0.19580078125,0.26220703125,10.0,20.875,-5.25
0,26,21,24,24,24,25,24,20,-0.26678466796875,-0.546875,-0.29376220703125,0.7371826171875,-0.94775390625,-0.18310546875,0.28857421875,19.3125,19.9375,-4.125
0,26,20,24,23,36,25,20,21,-0.263427734375,-0.54931640625,-0.29217529296875,0.7371826171875,-0.9384765625,-0.1650390625,0.31298828125,20.25,19.8125,-3.25
0,27,23,23,26,42,25,24,24,-0.26031494140625,-0.55133056640625,-0.29150390625,0.73712158203125,-0.94189453125,-0.19873046875,0.3330078125,15.3125,20.75,-3.6875
0,27,25,25,27,42,25,24,25,-0.25726318359375,-0.5528564453125,-0.29083251953125,0.7373046875,-0.9580078125,-0.17919921875,0.35009765625,14.4375,18.8125,-6.0625
0,28,26,28,41,94,27,24,25,-0.253662109375,-0.5537109375,-0.29022216796875,0.7381591796875,-0.9921875,-0.20263671875,0.34765625,16.0625,14.5,-9.4375
0,26,28,26,52,110,30,25,25,-0.249755859375,-0.55303955078125,-0.2900390625,0.74005126953125,-1.00927734375,-0.212890625,0.365234375,14.6875,6.625,-16.375
0,27,28,25,52,109,29,25,23,-0.2449951171875,-0.55108642578125,-0.28948974609375,0.7432861328125,-1.00830078125,-0.20068359375,0.36328125,19.0625,-2.8125,-24.375
0,25,26,26,52,114,32,24,23,-0.23919677734375,-0.54791259765625,-0.289306640625,0.74761962890625,-0.9970703125,-0.2177734375,0.34765625,21.4375,-10.625,-32.5
0,26,27,27,55,116,32,25,22,-0.2325439453125,-0.54339599609375,-0.289794921875,0.7528076171875,-0.99951171875,-0.2421875,0.35693359375,20.5625,-17.125,-41.3125
0,27,26,28,58,122,40,29,25,-0.22467041015625,-0.5377197265625,-0.29083251953125,0.75885009765625,-0.98681640625,-0.27734375,0.3662109375,22.1875,-22.0,-50.25
0,26,25,28,49,111,39,27,24,-0.21575927734375,-0.531005859375,-0.2919921875,0.765625,-0.9794921875,-0.3017578125,0.37646484375,24.9375,-27.1875,-57.125
0,26,25,29,49,120,40,28,23,-0.20611572265625,-0.52362060546875,-0.29278564453125,0.7730712890625,-0.99853515625,-0.328125,0.37158203125,29.625,-33.5625,-61.625
0,27,26,30,57,122,41,26,22,-0.19598388671875,-0.51513671875,-0.2923583984375,0.781494140625,-0.9736328125,-0.3056640625,0.392578125,35.6875,-41.1875,-65.25
0,25,26,32,56,127,57,25,22,-0.18560791015625,-0.50592041015625,-0.2913818359375,0.7904052734375,-0.93896484375,-0.287109375,0.39794921875,38.3125,-47.0,-68.9375
0,24,27,32,59,106,65,25,22,-0.17529296875,-0.49566650390625,-0.29119873046875,0.79925537109375,-0.947265625,-0.275390625,0.416015625,32.5625,-51.1875,-74.8125
0,25,27,32,60,105,65,26,23,-0.165283203125,-0.48455810546875,-0.29193115234375,0.807861328125,-0.9736328125,-0.29443359375,0.4072265625,27.0,-57.5625,-78.375
0,24,28,31,61,120,88,25,24,-0.15545654296875,-0.471923828125,-0.2926025390625,0.8170166015625,-0.96484375,-0.32470703125,0.43701171875,25.875,-66.1875,-80.0625
0,25,31,34,67,133,93,31,24,-0.14532470703125,-0.4581298828125,-0.2926025390625,0.82666015625,-0.93701171875,-0.33984375,0.45263671875,29.75,-73.9375,-82.25
0,26,29,29,75,148,120,46,24,-0.1356201171875,-0.4432373046875,-0.2926025390625,0.83636474609375,-0.91455078125,-0.33642578125,0.46484375,27.5,-80.8125,-83.3125
0,29,33,36,102,246,162,54,25,-0.12652587890625,-0.4271240234375,-0.29364013671875,0.84576416015625,-0.912109375,-0.373046875,0.48486328125,20.4375,-87.5,-84.9375
0,29,33,38,120,321,169,55,25,-0.1173095703125,-0.41009521484375,-0.2945556640625,0.85516357421875,-0.90771484375,-0.375,0.50927734375,19.9375,-93.1875,-87.875
0,30,31,38,123,316,163,62,25,-0.10748291015625,-0.39093017578125,-0.29638671875,0.86474609375,-0.89404296875,-0.3955078125,0.505859375,17.0,-100.3125,-93.125
0,27,27,36,132,342,222,117,25,-0.0972900390625,-0.370361328125,-0.29888916015625,0.87408447265625,-0.88525390625,-0.41650390625,0.5283203125,13.5625,-105.9375,-98.5
0,30,33,52,167,422,332,147,33,-0.0867919921875,-0.34881591796875,-0.30206298828125,0.8829345703125,-0.85791015625,-0.44384765625,0.53173828125,9.5,-109.4375,-103.125
0,25,27,46,153,397,340,148,29,-0.0758056640625,-0.32611083984375,-0.30535888671875,0.89141845703125,-0.8310546875,-0.46484375,0.5517578125,8.75,-113.6875,-107.875
0,25,27,45,147,349,339,150,29,-0.06451416015625,-0.3021240234375,-0.3089599609375,0.89947509765625,-0.810546875,-0.5634765625,0.55078125,7.5625,-119.5625,-111.4375
0,27,31,53,178,394,372,153,33,-0.05291748046875,-0.27685546875,-0.31170654296875,0.90740966796875,-0.76611328125,-0.61865234375,0.5751953125,12.125,-126.0625,-113.5625
0,26,30,54,171,379,357,154,33,-0.04095458984375,-0.250732421875,-0.3128662109375,0.9151611328125,-0.70166015625,-0.57080078125,0.5927734375,19.8125,-129.5625,-115.0
0,28,30,41,138,283,257,126,29,-0.02838134765625,-0.22381591796875,-0.3140869140625,0.92218017578125,-0.63037109375,-0.525390625,0.60693359375,18.4375,-131.75,-120.0
0,27,30,41,133,249,233,122,30,-0.0152587890625,-0.19659423828125,-0.316650390625,0.92779541015625,-0.53564453125,-0.51416015625,0.61962890625,8.9375,-129.75,-124.9375
0,27,30,44,124,243,248,121,30,-0.002197265625,-0.1693115234375,-0.31982421875,0.93218994140625,-0.4609375,-0.5654296875,0.63330078125,4.0625,-128.5,-124.25
0,25,27,40,73,189,215,114,27,0.0098876953125,-0.14141845703125,-0.3221435546875,0.93597412109375,-0.39453125,-0.57177734375,0.654296875,6.375,-132.625,-119.875
0,29,29,47,74,202,204,58,26,0.02105712890625,-0.1134033203125,-0.3228759765625,0.93939208984375,-0.2958984375,-0.54150390625,0.6474609375,13.4375,-134.3125,-113.375
0,26,24,44,84,262,211,47,21,0.0316162109375,-0.08624267578125,-0.32318115234375,0.94183349609375,-0.23828125,-0.5302734375,0.67919921875,12.8125,-129.8125,-108.125
0,26,26,50,108,341,216,49,23,0.04144287109375,-0.05987548828125,-0.323974609375,0.9432373046875,-0.2314453125,-0.47509765625,0.6728515625,7.25,-127.1875,-103.8125
0,28,25,51,107,352,208,47,25,0.05047607421875,-0.034423828125,-0.32476806640625,0.94378662109375,-0.166015625,-0.4794921875,0.6630859375,5.5,-123.1875,-97.9375
0,28,28,48,108,343,227,44,26,0.058837890625,-0.010009765625,-0.32568359375,0.94354248046875,-0.08544921875,-0.47705078125,0.68212890625,2.3125,-118.125,-91.9375
0,25,26,43,105,344,228,41,24,0.06640625,0.0128173828125,-0.328369140625,0.942138671875,-0.0478515625,-0.47900390625,0.6689453125,-9.5625,-111.625,-85.25
0,24,27,42,90,303,213,39,26,0.07281494140625,0.03497314453125,-0.3311767578125,0.9400634765625,-0.01171875,-0.48974609375,0.63916015625,-11.5,-110.3125,-78.1875
0,24,26,48,60,212,194,81,24,0.078369140625,0.056640625,-0.33343505859375,0.93780517578125,0.0546875,-0.52392578125,0.6572265625,-8.6875,-108.5625,-72.25
0,23,28,47,70,189,181,84,23,0.082763671875,0.0775146484375,-0.33447265625,0.935546875,0.11962890625,-0.50439453125,0.62890625,-1.875,-105.625,-64.5625
0,24,24,57,69,172,148,84,21,0.0858154296875,0.0972900390625,-0.335693359375,0.9329833984375,0.1630859375,-0.50146484375,0.6220703125,-3.4375,-102.5625,-55.4375
0,24,25,69,65,122,119,87,24,0.087158203125,0.11590576171875,-0.33709716796875,0.93023681640625,0.21142578125,-0.46728515625,0.6025390625,-5.625,-99.625,-43.8125
0,25,28,81,67,110,105,87,21,0.08740234375,0.13311767578125,-0.33917236328125,0.9271240234375,0.2412109375,-0.47900390625,0.595703125,-9.5,-95.0,-34.625
0,26,26,77,69,90,104,62,24,0.0860595703125,0.149169921875,-0.34136962890625,0.9239501953125,0.2783203125,-0.494140625,0.55908203125,-7.5,-90.375,-23.8125
0,27,26,80,58,75,126,98,25,0.08270263671875,0.16400146484375,-0.343994140625,0.9207763671875,0.310546875,-0.51220703125,0.54833984375,-7.6875,-87.1875,-10.25
0,24,28,78,59,105,141,104,26,0.07757568359375,0.17724609375,-0.3460693359375,0.91802978515625,0.3359375,-0.48779296875,0.5673828125,-5.75,-82.5,2.9375
0,24,28,72,58,98,143,117,26,0.0703125,0.18853759765625,-0.34820556640625,0.91552734375,0.3359375,-0.494140625,0.5546875,-3.8125,-76.5,17.4375
0,23,26,77,54,91,144,122,27,0.06072998046875,0.19854736328125,-0.3516845703125,0.91278076171875,0.35498046875,-0.50341796875,0.54345703125,-9.0625,-74.4375,34.0
0,22,28,86,52,89,147,116,27,0.04937744140625,0.20721435546875,-0.3568115234375,0.9095458984375,0.36376953125,-0.517578125,0.53369140625,-17.1875,-72.4375,47.875
0,21,29,99,53,89,129,91,26,0.03704833984375,0.21441650390625,-0.36236572265625,0.90625,0.396484375,-0.5546875,0.548828125,-18.875,-66.25,56.625
0,22,27,105,53,52,93,97,24,0.0242919921875,0.21929931640625,-0.3677978515625,0.9033203125,0.41162109375,-0.55615234375,0.56982421875,-18.875,-54.9375,64.9375
0,21,26,102,47,56,97,81,23,0.01104736328125,0.22174072265625,-0.37420654296875,0.90032958984375,0.384765625,-0.5947265625,0.58349609375,-24.0625,-45.125,72.125
0,24,31,103,55,62,120,93,25,-0.0023193359375,0.2227783203125,-0.38104248046875,0.89727783203125,0.34716796875,-0.64990234375,0.61328125,-26.25,-40.625,73.8125
0,24,30,107,55,63,120,111,25,-0.0155029296875,0.222900390625,-0.38653564453125,0.894775390625,0.35009765625,-0.70458984375,0.62548828125,-18.125,-34.875,72.4375
0,24,27,93,56,62,116,106,24,-0.0277099609375,0.2222900390625,-0.390625,0.89288330078125,0.36376953125,-0.71923828125,0.6298828125,-10.75,-27.375,68.4375
0,26,28,84,52,59,107,96,25,-0.03814697265625,0.22113037109375,-0.3939208984375,0.89129638671875,0.38720703125,-0.74658203125,0.619140625,-7.125,-18.9375,61.0
0,27,29,87,62,70,148,113,28,-0.04669189453125,0.219970703125,-0.39727783203125,0.88970947265625,0.42333984375,-0.7822265625,0.595703125,-8.1875,-11.75,53.125
0,25,24,72,54,63,133,104,26,-0.0537109375,0.218505859375,-0.40057373046875,0.88818359375,0.43798828125,-0.81298828125,0.57177734375,-7.25,-5.75,46.375
0,25,22,49,55,59,133,86,25,-0.05926513671875,0.2169189453125,-0.4034423828125,0.88690185546875,0.43017578125,-0.84912109375,0.5439453125,-3.6875,-0.625,38.125
0,25,24,51,53,58,143,114,26,-0.0628662109375,0.21551513671875,-0.405029296875,0.88629150390625,0.447265625,-0.8740234375,0.5302734375,3.25,4.5,26.8125
0,26,25,56,53,74,182,118,29,-0.064697265625,0.21466064453125,-0.40460205078125,0.88653564453125,0.47412109375,-0.86328125,0.52734375,12.8125,7.625,15.5
0,25,25,52,39,76,151,105,27,-0.06494140625,0.21435546875,-0.4034423828125,0.88714599609375,0.48193359375,-0.814453125,0.5068359375,14.6875,9.0625,6.875
0,25,24,69,39,95,150,104,27,-0.0634765625,0.21429443359375,-0.40283203125,0.8875732421875,0.47607421875,-0.80615234375,0.5048828125,8.8125,11.875,-2.125
0,25,26,76,36,99,149,111,27,-0.06005859375,0.21441650390625,-0.4027099609375,0.8878173828125,0.48193359375,-0.810546875,0.49951171875,4.3125,15.5625,-11.625
0,25,25,76,36,100,138,86,26,-0.0555419921875,0.2144775390625,-0.4022216796875,0.8883056640625,0.47412109375,-0.81201171875,0.49365234375,5.5625,18.3125,-18.4375
0,23,25,74,36,93,78,78,26,-0.05035400390625,0.21429443359375,-0.400634765625,0.889404296875,0.46923828125,-0.779296875,0.50537109375,10.625,20.9375,-22.75
0,23,26,75,36,86,89,77,25,-0.04461669921875,0.21368408203125,-0.3988037109375,0.89068603515625,0.4609375,-0.75244140625,0.50341796875,10.8125,24.3125,-25.25
0,24,25,57,31,65,93,79,24,-0.03826904296875,0.21246337890625,-0.39715576171875,0.8919677734375,0.453125,-0.7373046875,0.5107421875,8.5625,28.25,-26.875
0,24,26,53,35,68,95,74,27,-0.0313720703125,0.2100830078125,-0.3955078125,0.8935546875,0.4326171875,-0.72021484375,0.52392578125,7.9375,34.4375,-28.125
0,24,27,53,35,65,104,72,26,-0.02386474609375,0.20623779296875,-0.3935546875,0.8955078125,0.41748046875,-0.7041015625,0.53759765625,8.875,43.4375,-28.8125
0,22,25,47,31,60,106,74,23,-0.015625,0.20062255859375,-0.3917236328125,0.89776611328125,0.384765625,-0.6708984375,0.53564453125,8.0,53.125,-29.5
0,24,26,44,33,50,86,71,23,-0.0067138671875,0.19317626953125,-0.3900146484375,0.9002685546875,0.3525390625,-0.69482421875,0.52587890625,8.6875,63.875,-30.4375
0,23,28,42,33,48,77,60,24,0.00250244140625,0.183837890625,-0.38739013671875,0.90338134765625,0.3271484375,-0.69921875,0.5361328125,15.375,73.9375,-30.125
0,22,26,33,29,32,66,50,21,0.01153564453125,0.17266845703125,-0.3831787109375,0.90728759765625,0.30859375,-0.68505859375,0.5283203125,26.5,83.875,-27.0
0,24,26,35,29,33,51,48,24,0.0201416015625,0.1600341796875,-0.37738037109375,0.911865234375,0.29931640625,-0.640625,0.53125,35.125,92.0625,-21.9375
0,25,30,86,31,31,43,53,25,0.0279541015625,0.1461181640625,-0.371337890625,0.91650390625,0.29541015625,-0.5927734375,0.54638671875,35.1875,97.625,-13.6875
0,23,28,90,31,30,41,52,24,0.0347900390625,0.12994384765625,-0.3662109375,0.92071533203125,0.27197265625,-0.5556640625,0.55615234375,28.125,104.4375,-4.9375
0,21,29,91,32,30,52,51,26,0.04119873046875,0.1119384765625,-0.36224365234375,0.92437744140625,0.21435546875,-0.54296875,0.57568359375,20.125,112.3125,2.0625
0,22,29,111,40,34,54,62,27,0.04681396484375,0.091796875,-0.35833740234375,0.9278564453125,0.15478515625,-0.56396484375,0.5927734375,20.0625,121.5,10.125
0,21,29,110,41,31,52,68,27,0.0509033203125,0.07061767578125,-0.3541259765625,0.93109130859375,0.11376953125,-0.6103515625,0.619140625,21.8125,123.4375,20.0
0,20,26,78,40,29,52,67,25,0.05340576171875,0.04949951171875,-0.3499755859375,0.93389892578125,0.0322265625,-0.58447265625,0.6611328125,20.875,119.0,27.6875
0,22,27,75,38,36,55,71,26,0.05487060546875,0.02838134765625,-0.34454345703125,0.93670654296875,-0.03955078125,-0.57763671875,0.67041015625,28.0,116.875,32.4375
0,24,27,75,39,36,43,71,25,0.05560302734375,0.00701904296875,-0.3380126953125,0.939453125,-0.06787109375,-0.5908203125,0.68896484375,33.8125,117.125,36.5625
0,23,29,48,35,34,42,62,24,0.055419921875,-0.01483154296875,-0.3309326171875,0.94189453125,-0.08837890625,-0.521484375,0.69921875,35.1875,118.1875,43.0
0,23,29,48,33,33,41,54,22,0.0540771484375,-0.0369873046875,-0.32635498046875,0.94293212890625,-0.18505859375,-0.4990234375,0.7197265625,18.75,116.375,48.125
0,24,29,47,33,34,39,42,22,0.05206298828125,-0.05859375,-0.3231201171875,0.943115234375,-0.251953125,-0.513671875,0.7119140625,9.8125,111.25,49.9375
0,22,28,44,34,28,30,32,25,0.04925537109375,-0.08013916015625,-0.31927490234375,0.94293212890625,-0.2578125,-0.52392578125,0.72509765625,12.5,110.6875,54.625
0,21,30,44,32,35,30,30,27,0.04510498046875,-0.10174560546875,-0.3134765625,0.94305419921875,-0.2607421875,-0.5390625,0.720703125,23.4375,109.0625,63.625
0,21,28,34,30,40,29,28,27,0.03857421875,-0.12335205078125,-0.3076171875,0.94268798828125,-0.32275390625,-0.48974609375,0.73828125,20.625,105.0,75.5625
0,23,27,31,29,44,35,30,27,0.03021240234375,-0.1455078125,-0.30181884765625,0.94171142578125,-0.4169921875,-0.4287109375,0.7578125,11.375,97.6875,79.1875
0,22,26,35,29,44,34,27,28,0.020751953125,-0.1668701171875,-0.29583740234375,0.9403076171875,-0.462890625,-0.35498046875,0.76171875,7.125,92.3125,82.0
0,24,28,50,29,46,33,27,25,0.0111083984375,-0.188232421875,-0.290771484375,0.93804931640625,-0.4638671875,-0.3310546875,0.740234375,0.625,94.5,83.25
0,25,25,52,29,41,30,29,24,0.00030517578125,-0.20941162109375,-0.288818359375,0.9342041015625,-0.51708984375,-0.3935546875,0.7060546875,-15.375,92.4375,86.5
0,27,22,51,26,35,29,26,25,-0.0126953125,-0.22998046875,-0.288330078125,0.92938232421875,-0.5869140625,-0.416015625,0.69677734375,-25.5,85.4375,95.0
0,26,22,52,25,30,23,24,26,-0.02642822265625,-0.24749755859375,-0.2880859375,0.9246826171875,-0.63720703125,-0.46533203125,0.69970703125,-23.875,74.5625,100.6875
0,26,25,51,31,43,26,26,27,-0.0406494140625,-0.26348876953125,-0.2850341796875,0.920654296875,-0.64599609375,-0.41796875,0.71484375,-9.375,65.0625,104.75
0,25,23,35,29,48,28,25,28,-0.05499267578125,-0.27886962890625,-0.28131103515625,0.91656494140625,-0.63427734375,-0.33837890625,0.7138671875,-7.25,62.0,105.4375
0,24,24,59,31,49,30,25,28,-0.07073974609375,-0.2939453125,-0.280517578125,0.9110107421875,-0.681640625,-0.25537109375,0.697265625,-27.875,61.25,107.0625
0,22,28,62,32,50,32,26,28,-0.08770751953125,-0.3079833984375,-0.2840576171875,0.90374755859375,-0.734375,-0.244140625,0.66015625,-55.5625,58.625,104.75
0,21,28,64,37,52,32,26,26,-0.12347412109375,-0.33184814453125,-0.29815673828125,0.88641357421875,-0.794921875,-0.45263671875,0.64990234375,-78.0625,46.75,102.6875
0,21,25,62,32,42,29,25,24,-0.14093017578125,-0.3414306640625,-0.3028564453125,0.8785400390625,-0.830078125,-0.42578125,0.62353515625,-64.3125,36.0625,100.375
0,21,24,62,31,34,27,24,25,-0.15850830078125,-0.349853515625,-0.30621337890625,0.87103271484375,-0.83251953125,-0.42919921875,0.5947265625,-58.0,25.5,99.375
0,22,25,39,30,31,25,22,22,-0.17620849609375,-0.3564453125,-0.3089599609375,0.86395263671875,-0.8173828125,-0.41162109375,0.5869140625,-55.9375,18.0,100.3125
0,23,24,38,30,32,26,21,24,-0.194580078125,-0.36212158203125,-0.312744140625,0.85626220703125,-0.81201171875,-0.380859375,0.560546875,-65.3125,13.25,98.125
0,21,24,33,23,28,25,20,23,-0.213134765625,-0.36614990234375,-0.31854248046875,0.84796142578125,-0.79736328125,-0.3388671875,0.5341796875,-79.0625,9.0,92.25
0,21,25,34,26,28,53,28,26,-0.23211669921875,-0.3690185546875,-0.32666015625,0.83856201171875,-0.7998046875,-0.349609375,0.4970703125,-93.5,6.875,89.625
0,21,27,32,25,28,93,41,24,-0.25115966796875,-0.37030029296875,-0.33673095703125,0.8284912109375,-0.8291015625,-0.4169921875,0.47607421875,-105.4375,4.5625,86.25
0,21,25,28,26,29,97,53,25,-0.26953125,-0.37103271484375,-0.34619140625,0.81842041015625,-0.82421875,-0.51513671875,0.4736328125,-100.875,2.5625,84.6875
0,23,24,27,25,26,102,55,23,-0.28558349609375,-0.37176513671875,-0.353759765625,0.80938720703125,-0.8251953125,-0.49560546875,0.48095703125,-82.3125,2.4375,82.0625
0,24,26,27,27,29,114,72,23,-0.3001708984375,-0.37347412109375,-0.35894775390625,0.801025390625,-0.8125,-0.419921875,0.44287109375,-66.5625,3.4375,77.5625
0,25,24,27,27,26,107,79,22,-0.31341552734375,-0.3753662109375,-0.36456298828125,0.79248046875,-0.82958984375,-0.4013671875,0.40625,-65.5,6.625,70.5
0,24,24,27,26,27,79,79,21,-0.32489013671875,-0.3765869140625,-0.371826171875,0.7838134765625,-0.85595703125,-0.44140625,0.38232421875,-68.6875,9.25,60.0
0,26,25,28,25,29,75,72,25,-0.33380126953125,-0.37701416015625,-0.3795166015625,0.77618408203125,-0.85400390625,-0.49658203125,0.361328125,-62.9375,9.25,47.5
0,24,26,27,27,32,71,80,27,-0.339599609375,-0.37701416015625,-0.385986328125,0.77044677734375,-0.8525390625,-0.52978515625,0.3662109375,-47.1875,9.1875,34.0
0,24,23,28,27,32,83,77,27,-0.3424072265625,-0.37738037109375,-0.390625,0.76666259765625,-0.849609375,-0.5380859375,0.35595703125,-27.125,9.125,22.125
0,25,25,28,32,65,91,71,28,-0.34246826171875,-0.3778076171875,-0.39312744140625,0.76513671875,-0.8447265625,-0.53369140625,0.35107421875,-6.875,6.75,10.125
0,26,25,28,38,67,89,66,30,-0.33984375,-0.37799072265625,-0.39404296875,0.7657470703125,-0.8466796875,-0.51708984375,0.3525390625,9.4375,4.3125,-3.875
0,25,25,26,44,73,88,65,28,-0.33514404296875,-0.37738037109375,-0.394287109375,0.76800537109375,-0.85009765625,-0.49755859375,0.3642578125,18.125,0.875,-18.4375
0,26,25,28,62,119,87,55,27,-0.3289794921875,-0.3753662109375,-0.39434814453125,0.7716064453125,-0.833984375,-0.48779296875,0.39501953125,21.1875,-3.5,-31.375
0,28,27,27,66,167,88,40,28,-0.32159423828125,-0.37176513671875,-0.39501953125,0.776123046875,-0.82861328125,-0.49072265625,0.4267578125,19.0,-6.625,-43.8125
0,27,27,27,66,171,118,36,25,-0.3131103515625,-0.3670654296875,-0.396484375,0.781005859375,-0.8232421875,-0.48779296875,0.43896484375,16.3125,-8.25,-54.9375
0,26,25,29,69,178,132,46,23,-0.30352783203125,-0.36138916015625,-0.39837646484375,0.7864990234375,-0.82421875,-0.5185546875,0.44482421875,16.4375,-10.875,-63.8125
0,26,24,29,71,205,135,48,23,-0.29248046875,-0.35504150390625,-0.3995361328125,0.79296875,-0.81591796875,-0.5478515625,0.4736328125,23.9375,-12.9375,-71.8125
0,24,23,26,59,198,173,52,25,-0.279541015625,-0.3487548828125,-0.39923095703125,0.800537109375,-0.80517578125,-0.56591796875,0.4814453125,36.875,-13.25,-79.1875
0,20,23,26,73,176,179,67,25,-0.26513671875,-0.34283447265625,-0.39703369140625,0.80902099609375,-0.80712890625,-0.55224609375,0.49951171875,50.0,-13.5625,-85.125
0,22,20,27,78,175,163,64,24,-0.24957275390625,-0.33709716796875,-0.39306640625,0.81829833984375,-0.80419921875,-0.52490234375,0.51025390625,61.3125,-14.625,-91.0
0,23,22,28,87,210,165,61,28,-0.233154296875,-0.3309326171875,-0.3885498046875,0.8277587890625,-0.78955078125,-0.509765625,0.515625,64.8125,-17.0625,-96.6875
0,22,23,29,95,205,166,61,27,-0.2158203125,-0.32403564453125,-0.3839111328125,0.8372802734375,-0.783203125,-0.52099609375,0.51806640625,66.875,-18.8125,-102.0625
0,24,24,30,96,193,138,68,25,-0.1976318359375,-0.316650390625,-0.3787841796875,0.84686279296875,-0.7763671875,-0.53857421875,0.5322265625,70.3125,-19.875,-106.5
0,27,27,34,91,213,175,61,28,-0.1787109375,-0.308837890625,-0.373046875,0.8564453125,-0.7626953125,-0.51318359375,0.5595703125,73.4375,-21.375,-110.25
0,24,28,34,90,239,189,61,28,-0.15936279296875,-0.3001708984375,-0.3675537109375,0.86566162109375,-0.78125,-0.5126953125,0.56494140625,71.5625,-24.5,-115.125
0,25,29,35,84,214,187,58,27,-0.1392822265625,-0.2904052734375,-0.36199951171875,0.874755859375,-0.78271484375,-0.51416015625,0.58203125,72.0,-28.5,-120.9375
0,25,29,34,72,224,188,66,28,-0.11883544921875,-0.27960205078125,-0.35614013671875,0.8836669921875,-0.76171875,-0.525390625,0.59326171875,72.6875,-32.8125,-124.6875
0,26,30,36,114,324,243,71,31,-0.098388671875,-0.26763916015625,-0.3507080078125,0.89202880859375,-0.73779296875,-0.5263671875,0.60302734375,68.5,-38.125,-127.25
0,23,28,36,131,356,224,69,27,-0.078125,-0.25457763671875,-0.34576416015625,0.89971923828125,-0.71240234375,-0.5,0.626953125,63.75,-42.9375,-129.25
0,24,30,36,135,347,216,80,29,-0.05755615234375,-0.240478515625,-0.34112548828125,0.90692138671875,-0.68798828125,-0.525390625,0.6533203125,61.0625,-46.75,-133.5625
0,22,28,34,131,346,214,89,28,-0.03662109375,-0.22540283203125,-0.33642578125,0.91357421875,-0.6513671875,-0.5283203125,0.6728515625,60.4375,-50.625,-136.6875
0,23,28,34,133,341,219,85,28,-0.01617431640625,-0.20916748046875,-0.33148193359375,0.9197998046875,-0.5947265625,-0.51171875,0.66259765625,59.9375,-57.1875,-136.1875
0,21,23,30,99,257,149,76,24,0.00390625,-0.191650390625,-0.32684326171875,0.9254150390625,-0.54541015625,-0.52197265625,0.6875,56.8125,-63.9375,-136.5
0,25,28,35,99,232,135,98,27,0.02349853515625,-0.1734619140625,-0.3223876953125,0.9302978515625,-0.501953125,-0.49609375,0.6982421875,53.5625,-67.6875,-135.75
0,25,27,35,93,229,157,98,25,0.042236328125,-0.15478515625,-0.3192138671875,0.93402099609375,-0.447265625,-0.4775390625,0.697265625,43.75,-70.875,-133.5
0,24,28,36,100,235,162,90,25,0.06024169921875,-0.13525390625,-0.31781005859375,0.9365234375,-0.3916015625,-0.4921875,0.72216796875,31.375,-76.125,-132.5625
0,26,33,40,105,242,172,91,26,0.07733154296875,-0.1148681640625,-0.3172607421875,0.93817138671875,-0.3349609375,-0.50634765625,0.73095703125,25.25,-81.5,-130.1875
0,25,33,41,103,231,183,89,28,0.0933837890625,-0.09454345703125,-0.31707763671875,0.93902587890625,-0.2734375,-0.51025390625,0.73193359375,21.125,-82.875,-124.75
0,23,29,36,74,186,192,60,26,0.1082763671875,-0.07373046875,-0.3177490234375,0.93902587890625,-0.2275390625,-0.49755859375,0.72900390625,14.75,-87.375,-120.125
0,23,31,48,78,176,168,60,28,0.1217041015625,-0.05255126953125,-0.31903076171875,0.93841552734375,-0.17236328125,-0.49658203125,0.73388671875,9.6875,-92.3125,-113.5625
0,24,29,53,78,172,172,68,27,0.134033203125,-0.03131103515625,-0.32110595703125,0.93695068359375,-0.11767578125,-0.4912109375,0.736328125,3.875,-94.6875,-108.0
0,23,23,51,76,166,187,65,26,0.145263671875,-0.00982666015625,-0.32373046875,0.93487548828125,-0.080078125,-0.5078125,0.7353515625,-0.5625,-98.3125,-103.375
0,22,23,55,80,188,179,68,25,0.15472412109375,0.011474609375,-0.3262939453125,0.93243408203125,-0.01708984375,-0.5224609375,0.7294921875,-0.625,-100.5,-94.0
0,23,24,56,82,196,161,79,23,0.16229248046875,0.032958984375,-0.32794189453125,0.9300537109375,0.0439453125,-0.51708984375,0.7314453125,4.9375,-103.5625,-83.75
0,23,23,45,77,201,160,70,22,0.16802978515625,0.05389404296875,-0.3291015625,0.9276123046875,0.09765625,-0.46484375,0.72119140625,6.4375,-103.6875,-72.625
0,23,26,44,69,202,154,65,25,0.17181396484375,0.07391357421875,-0.3309326171875,0.9249267578125,0.1650390625,-0.4326171875,0.69873046875,1.9375,-102.75,-60.0625
0,24,28,56,64,179,107,65,25,0.1739501953125,0.0928955078125,-0.33349609375,0.921875,0.203125,-0.44140625,0.69384765625,-2.9375,-101.3125,-49.4375
0,24,30,57,61,156,102,61,26,0.174072265625,0.11083984375,-0.33673095703125,0.918701171875,0.2314453125,-0.45703125,0.6826171875,-6.375,-100.375,-36.6875
0,25,29,61,57,131,90,46,27,0.171875,0.1279296875,-0.3399658203125,0.91571044921875,0.26513671875,-0.45263671875,0.662109375,-5.0625,-100.125,-22.5
0,25,28,64,58,101,81,58,26,0.16741943359375,0.1439208984375,-0.3424072265625,0.9132080078125,0.283203125,-0.44873046875,0.650390625,-2.1875,-99.4375,-9.0625
0,25,29,67,53,76,60,57,25,0.1607666015625,0.15911865234375,-0.34478759765625,0.9110107421875,0.30029296875,-0.4375,0.6240234375,-0.3125,-99.5,4.6875
0,26,29,73,52,56,55,57,24,0.15167236328125,0.17333984375,-0.34814453125,0.90869140625,0.32373046875,-0.435546875,0.599609375,-3.875,-99.3125,20.4375
0,26,27,89,46,47,48,55,21,0.14019775390625,0.186279296875,-0.3525390625,0.90625,0.3408203125,-0.43310546875,0.57763671875,-8.1875,-97.75,37.0625
0,25,28,96,48,42,48,68,23,0.12677001953125,0.19775390625,-0.35797119140625,0.9036865234375,0.38134765625,-0.45263671875,0.54638671875,-11.8125,-93.4375,51.75
0,26,29,107,42,38,79,73,27,0.111572265625,0.2071533203125,-0.36419677734375,0.90106201171875,0.3955078125,-0.48193359375,0.52880859375,-14.375,-86.0,66.3125
0,24,32,136,47,35,83,76,27,0.09466552734375,0.21392822265625,-0.37127685546875,0.8985595703125,0.388671875,-0.51025390625,0.5322265625,-18.25,-77.75,80.5625
0,23,33,135,44,30,84,91,28,0.07611083984375,0.21868896484375,-0.37945556640625,0.895751953125,0.375,-0.51806640625,0.5322265625,-24.25,-72.375,94.6875
0,23,35,130,43,32,89,108,28,0.05645751953125,0.22137451171875,-0.387451171875,0.89306640625,0.3974609375,-0.533203125,0.52294921875,-21.875,-63.375,104.375
0,24,36,131,40,33,92,107,28,0.0367431640625,0.220947265625,-0.39495849609375,0.89093017578125,0.435546875,-0.50146484375,0.50048828125,-19.125,-46.0625,112.25
0,24,37,127,39,32,78,99,25,0.01763916015625,0.216552734375,-0.40325927734375,0.888916015625,0.44970703125,-0.5205078125,0.4755859375,-24.25,-23.8125,119.4375
0,25,41,113,32,37,121,97,26,-0.0008544921875,0.2083740234375,-0.414306640625,0.88592529296875,0.4208984375,-0.607421875,0.47900390625,-41.1875,-4.875,127.6875
0,27,41,109,35,43,127,86,26,-0.01947021484375,0.19775390625,-0.4266357421875,0.88232421875,0.330078125,-0.65869140625,0.4873046875,-48.9375,5.75,135.0625
0,26,41,101,33,44,127,65,27,-0.0380859375,0.1849365234375,-0.43646240234375,0.879638671875,0.22216796875,-0.728515625,0.494140625,-33.6875,17.125,136.4375
0,27,39,94,35,47,127,65,26,-0.05670166015625,0.1702880859375,-0.444091796875,0.8778076171875,0.17919921875,-0.79638671875,0.48828125,-19.3125,26.375,137.875
0,25,40,94,35,46,121,67,25,-0.07562255859375,0.154296875,-0.44989013671875,0.87640380859375,0.1904296875,-0.81201171875,0.47900390625,-8.0625,33.0,142.0
0,27,31,63,38,45,149,76,25,-0.0936279296875,0.13714599609375,-0.45379638671875,0.87548828125,0.12939453125,-0.8193359375,0.4931640625,2.0,40.625,137.9375
0,26,31,69,40,41,160,88,28,-0.1102294921875,0.11883544921875,-0.45672607421875,0.87469482421875,0.0654296875,-0.72119140625,0.4921875,6.125,49.25,133.375
0,26,29,72,43,39,161,89,29,-0.125,0.0997314453125,-0.46270751953125,0.8719482421875,-0.01123046875,-0.76611328125,0.48291015625,-14.6875,58.25,128.875
0,26,28,65,43,40,163,81,28,-0.13916015625,0.0806884765625,-0.4705810546875,0.8675537109375,-0.0419921875,-0.85888671875,0.47021484375,-28.3125,60.4375,127.9375
0,26,26,64,43,41,164,85,28,-0.15313720703125,0.0614013671875,-0.47705078125,0.86328125,-0.04541015625,-0.923828125,0.48583984375,-20.1875,61.1875,127.8125
0,23,26,69,37,35,123,89,26,-0.166259765625,0.04150390625,-0.4803466796875,0.86016845703125,-0.09375,-0.88232421875,0.4814453125,-1.6875,64.25,123.125
0,25,28,62,42,51,133,99,25,-0.17791748046875,0.02130126953125,-0.48345947265625,0.8568115234375,-0.18408203125,-0.8203125,0.46142578125,-1.75,69.1875,116.4375
0,25,27,57,41,51,134,101,25,-0.18829345703125,0.00177001953125,-0.4884033203125,0.85205078125,-0.23681640625,-0.86083984375,0.4541015625,-15.0,70.75,109.8125
0,25,29,56,39,49,139,107,24,-0.1976318359375,-0.016845703125,-0.4935302734375,0.8468017578125,-0.28466796875,-0.95166015625,0.47509765625,-17.9375,69.625,102.9375
0,25,29,44,38,51,141,107,25,-0.20574951171875,-0.0357666015625,-0.49615478515625,0.8427734375,-0.3046875,-0.9267578125,0.47900390625,1.8125,70.4375,96.8125
0,26,28,37,40,53,138,101,25,-0.2117919921875,-0.0550537109375,-0.49664306640625,0.8399658203125,-0.32763671875,-0.86279296875,0.47607421875,14.3125,75.5625,86.5
0,26,27,33,33,45,159,104,27,-0.2158203125,-0.07427978515625,-0.4974365234375,0.83697509765625,-0.3828125,-0.857421875,0.47021484375,13.0,81.0,76.3125
0,26,27,33,32,44,161,105,25,-0.2186279296875,-0.0927734375,-0.49871826171875,0.83355712890625,-0.443359375,-0.88232421875,0.46875,9.875,80.875,68.4375
0,25,26,35,30,40,156,105,27,-0.220458984375,-0.11004638671875,-0.49884033203125,0.8309326171875,-0.46923828125,-0.87255859375,0.4697265625,16.1875,76.5625,60.0625
0,25,26,39,31,40,155,107,26,-0.2210693359375,-0.1259765625,-0.49755859375,0.82928466796875,-0.44775390625,-0.86181640625,0.4814453125,23.6875,72.9375,53.0625
0,26,28,42,30,42,146,101,28,-0.220458984375,-0.141357421875,-0.4951171875,0.82843017578125,-0.453125,-0.83837890625,0.48388671875,30.9375,72.875,46.1875
0,25,27,41,27,33,95,75,23,-0.2181396484375,-0.15667724609375,-0.49188232421875,0.82818603515625,-0.49072265625,-0.78369140625,0.48779296875,36.0,75.3125,35.75
0,22,28,40,27,35,86,71,25,-0.2142333984375,-0.17144775390625,-0.489013671875,0.8280029296875,-0.55224609375,-0.796875,0.47998046875,35.875,76.375,24.8125
0,22,26,38,27,37,80,58,24,-0.2088623046875,-0.1854248046875,-0.48583984375,0.8282470703125,-0.5712890625,-0.83203125,0.48095703125,40.5,76.125,17.1875
0,23,25,35,26,35,73,40,25,-0.2017822265625,-0.19970703125,-0.4803466796875,0.829833984375,-0.5908203125,-0.8173828125,0.4892578125,56.75,78.375,10.3125
0,23,24,29,27,30,57,54,22,-0.19281005859375,-0.21478271484375,-0.47149658203125,0.83331298828125,-0.587890625,-0.75341796875,0.51318359375,78.6875,82.4375,4.5
0,21,23,28,28,30,45,51,23,-0.18212890625,-0.22967529296875,-0.46112060546875,0.8375244140625,-0.54931640625,-0.69580078125,0.50048828125,89.0625,84.75,-2.3125
0,22,22,31,31,28,37,50,22,-0.17059326171875,-0.24407958984375,-0.45098876953125,0.8414306640625,-0.55908203125,-0.6884765625,0.50048828125,88.375,84.875,-7.375
0,23,25,30,39,33,34,51,23,-0.15887451171875,-0.25830078125,-0.44024658203125,0.8450927734375,-0.5810546875,-0.68505859375,0.49267578125,91.625,83.5,-7.625
0,22,28,34,38,31,33,49,22,-0.14727783203125,-0.27166748046875,-0.42919921875,0.84869384765625,-0.59326171875,-0.638671875,0.4921875,91.0,78.75,-10.0
0,20,27,35,40,30,27,28,23,-0.13616943359375,-0.28424072265625,-0.41888427734375,0.8515625,-0.62646484375,-0.61181640625,0.49609375,83.875,74.6875,-11.75
0,23,27,35,39,31,26,23,24,-0.1259765625,-0.29595947265625,-0.40911865234375,0.8538818359375,-0.6591796875,-0.587890625,0.509765625,76.75,69.375,-11.3125
0,23,28,45,41,33,27,22,24,-0.116943359375,-0.30633544921875,-0.399658203125,0.85601806640625,-0.68310546875,-0.5537109375,0.5185546875,71.0,60.4375,-10.9375
0,26,28,76,40,28,26,20,23,-0.10968017578125,-0.31488037109375,-0.39141845703125,0.85772705078125,-0.71826171875,-0.5068359375,0.5283203125,57.9375,48.375,-10.9375
0,26,26,82,40,28,24,22,25,-0.10443115234375,-0.32110595703125,-0.38494873046875,0.85894775390625,-0.72900390625,-0.47802734375,0.5546875,41.1875,35.375,-9.9375
0,27,26,88,38,30,26,22,23,-0.10137939453125,-0.32525634765625,-0.37994384765625,0.8599853515625,-0.7412109375,-0.47314453125,0.5888671875,27.125,22.5,-7.0625
0,27,26,90,38,30,25,22,22,-0.10076904296875,-0.32696533203125,-0.37677001953125,0.86077880859375,-0.73974609375,-0.44482421875,0.6044921875,10.4375,7.375,-4.3125
0,26,27,91,32,29,24,24,23,-0.1019287109375,-0.32647705078125,-0.37554931640625,0.86138916015625,-0.72314453125,-0.4384765625,0.623046875,-5.25,-4.25,-3.0625
0,21,29,83,28,27,25,24,22,-0.1046142578125,-0.32470703125,-0.37615966796875,0.8614501953125,-0.70654296875,-0.4619140625,0.6298828125,-18.0,-11.375,0.125
0,23,28,76,27,27,25,25,21,-0.108642578125,-0.32220458984375,-0.3775634765625,0.86126708984375,-0.71875,-0.47998046875,0.626953125,-24.75,-17.375,3.9375
0,23,29,76,26,26,26,25,21,-0.113525390625,-0.31890869140625,-0.37890625,0.86126708984375,-0.70654296875,-0.4951171875,0.6201171875,-25.5,-23.8125,7.625
0,23,28,76,29,27,37,28,22,-0.11907958984375,-0.31500244140625,-0.3797607421875,0.861572265625,-0.6806640625,-0.51318359375,0.61572265625,-22.8125,-28.3125,12.25
0,23,26,69,29,25,42,31,22,-0.1256103515625,-0.3109130859375,-0.38031005859375,0.8619384765625,-0.677734375,-0.5,0.59814453125,-22.75,-32.75,16.6875
0,27,23,57,32,31,59,42,24,-0.133056640625,-0.30621337890625,-0.38177490234375,0.86181640625,-0.68017578125,-0.48486328125,0.55615234375,-28.625,-38.625,17.8125
0,26,25,61,35,32,60,42,25,-0.14111328125,-0.30047607421875,-0.38525390625,0.86102294921875,-0.689453125,-0.501953125,0.5498046875,-41.6875,-43.0625,15.6875
0,26,26,54,36,32,89,43,24,-0.14947509765625,-0.2933349609375,-0.39019775390625,0.85986328125,-0.7109375,-0.55517578125,0.56591796875,-49.9375,-49.125,12.75
0,24,26,55,36,39,92,58,24,-0.157958984375,-0.28448486328125,-0.39532470703125,0.85894775390625,-0.70068359375,-0.5869140625,0.57666015625,-51.375,-57.9375,10.5
0,27,26,56,39,53,123,64,26,-0.1661376953125,-0.27386474609375,-0.39996337890625,0.85870361328125,-0.66015625,-0.60107421875,0.583984375,-48.3125,-66.0625,6.3125
0,26,27,49,38,55,123,66,27,-0.17376708984375,-0.26171875,-0.405029296875,0.858642578125,-0.6357421875,-0.61669921875,0.595703125,-50.5625,-71.5625,0.4375
0,25,26,45,46,68,141,87,29,-0.18072509765625,-0.248291015625,-0.41143798828125,0.858154296875,-0.63232421875,-0.65869140625,0.58056640625,-57.0625,-75.375,-6.8125
0,27,28,40,58,101,156,100,31,-0.18670654296875,-0.233154296875,-0.41876220703125,0.8575439453125,-0.6328125,-0.71875,0.580078125,-59.875,-81.625,-16.0
0,28,29,38,58,101,183,101,32,-0.1912841796875,-0.216796875,-0.42523193359375,0.857666015625,-0.58642578125,-0.75341796875,0.60205078125,-53.6875,-84.5,-24.0625
0,27,30,35,62,102,164,105,31,-0.19384765625,-0.19964599609375,-0.430419921875,0.85870361328125,-0.54833984375,-0.78369140625,0.59814453125,-42.75,-86.125,-34.0
0,25,28,36,67,153,160,103,30,-0.19476318359375,-0.1820068359375,-0.4346923828125,0.8602294921875,-0.5234375,-0.81884765625,0.5693359375,-33.1875,-87.25,-42.6875
0,27,33,39,86,225,219,95,32,-0.19390869140625,-0.163818359375,-0.4381103515625,0.86236572265625,-0.490234375,-0.84912109375,0.54833984375,-23.9375,-87.8125,-52.125
0,25,31,41,86,237,238,120,30,-0.19146728515625,-0.1456298828125,-0.4405517578125,0.8648681640625,-0.466796875,-0.84130859375,0.53173828125,-16.6875,-86.3125,-61.25
0,23,29,38,94,250,232,118,27,-0.1871337890625,-0.126953125,-0.44281005859375,0.86761474609375,-0.4560546875,-0.84912109375,0.51171875,-12.625,-86.1875,-73.4375
0,24,30,40,101,284,248,123,30,-0.18115234375,-0.1072998046875,-0.44476318359375,0.87054443359375,-0.4228515625,-0.900390625,0.4912109375,-7.6875,-88.25,-83.875
0,24,29,40,105,269,258,127,30,-0.17364501953125,-0.0872802734375,-0.44464111328125,0.8743896484375,-0.39453125,-0.89794921875,0.484375,5.9375,-89.5625,-93.625
0,22,24,36,89,225,210,128,25,-0.16448974609375,-0.066650390625,-0.4404296875,0.88006591796875,-0.35107421875,-0.87060546875,0.50390625,22.0625,-88.1875,-102.625
0,25,29,47,96,270,219,102,30,-0.15386962890625,-0.0460205078125,-0.43560791015625,0.88568115234375,-0.2958984375,-0.83935546875,0.50341796875,25.5625,-85.375,-110.0
0,25,30,50,91,288,241,105,31,-0.14208984375,-0.02490234375,-0.43182373046875,0.89031982421875,-0.2705078125,-0.79150390625,0.49072265625,17.1875,-84.0,-116.9375
0,24,29,49,96,280,236,102,28,-0.12890625,-0.0029296875,-0.42901611328125,0.89404296875,-0.2470703125,-0.81982421875,0.47265625,10.0,-84.125,-125.75
0,24,30,50,99,302,241,117,28,-0.1143798828125,0.019287109375,-0.42535400390625,0.8975830078125,-0.17529296875,-0.8193359375,0.494140625,13.8125,-82.5625,-133.1875
0,24,30,57,109,314,270,111,28,-0.09869384765625,0.04144287109375,-0.42034912109375,0.9010009765625,-0.1005859375,-0.8291015625,0.5078125,20.375,-79.5625,-138.6875
0,29,28,54,128,315,261,124,31,-0.0826416015625,0.062744140625,-0.41455078125,0.904052734375,-0.0458984375,-0.787109375,0.51513671875,23.4375,-75.0,-138.6875
0,30,29,52,130,310,239,123,32,-0.0665283203125,0.08343505859375,-0.408203125,0.9066162109375,0.0126953125,-0.70947265625,0.517578125,24.375,-71.75,-136.9375
0,31,31,59,134,329,242,118,34,-0.04998779296875,0.10369873046875,-0.40234375,0.908203125,0.0771484375,-0.69091796875,0.54052734375,19.4375,-68.8125,-137.6875
0,31,31,59,131,322,239,95,35,-0.0330810546875,0.123046875,-0.3974609375,0.90875244140625,0.16064453125,-0.65771484375,0.54931640625,11.6875,-62.6875,-135.875
0,34,32,51,125,325,204,100,37,-0.015625,0.14080810546875,-0.39306640625,0.90850830078125,0.20556640625,-0.64453125,0.55859375,7.0,-53.8125,-134.625
0,29,35,106,100,282,167,82,30,0.0018310546875,0.1566162109375,-0.3890380859375,0.90777587890625,0.2373046875,-0.6337890625,0.5595703125,3.875,-43.9375,-130.0625
0,28,33,112,98,264,152,77,30,0.01873779296875,0.17083740234375,-0.38531494140625,0.9066162109375,0.26513671875,-0.623046875,0.56396484375,2.0,-37.5625,-123.375
0,28,33,112,85,225,132,73,27,0.03497314453125,0.1837158203125,-0.380859375,0.905517578125,0.3046875,-0.619140625,0.5849609375,5.9375,-32.0625,-117.6875
0,29,35,129,87,236,154,79,26,0.051025390625,0.1951904296875,-0.37567138671875,0.90447998046875,0.3515625,-0.6015625,0.61376953125,10.0,-25.0,-114.0625
0,24,34,135,97,232,173,73,27,0.06622314453125,0.20501708984375,-0.37066650390625,0.90338134765625,0.3681640625,-0.54248046875,0.6044921875,8.5,-18.1875,-105.4375
0,31,35,105,130,321,235,89,36,0.08111572265625,0.21368408203125,-0.3668212890625,0.9017333984375,0.37109375,-0.5517578125,0.62109375,1.75,-14.5,-101.0625
0,32,36,103,139,342,245,91,36,0.09576416015625,0.22100830078125,-0.3629150390625,0.900146484375,0.3935546875,-0.58740234375,0.62451171875,1.625,-9.9375,-98.9375
0,31,35,106,135,334,252,92,35,0.1090087890625,0.2281494140625,-0.35797119140625,0.8988037109375,0.4091796875,-0.58837890625,0.61767578125,10.5,-11.0,-93.5
0,30,34,101,135,319,232,96,35,0.121337890625,0.23614501953125,-0.35064697265625,0.8980712890625,0.48291015625,-0.5146484375,0.6396484375,22.375,-13.5,-88.875
0,32,34,97,145,374,264,109,35,0.13372802734375,0.2442626953125,-0.3436279296875,0.8968505859375,0.5478515625,-0.4482421875,0.638671875,17.875,-12.75,-86.125
0,25,29,94,115,297,242,129,28,0.14630126953125,0.25079345703125,-0.34002685546875,0.8944091796875,0.56982421875,-0.48095703125,0.65966796875,-1.9375,-9.0625,-81.3125
0,27,28,94,114,282,234,127,27,0.15814208984375,0.256103515625,-0.33831787109375,0.8916015625,0.5478515625,-0.51025390625,0.6640625,-10.5625,-8.375,-75.9375
0,27,30,88,132,341,238,152,28,0.1695556640625,0.26202392578125,-0.33526611328125,0.88885498046875,0.55810546875,-0.48193359375,0.6640625,-3.4375,-11.625,-76.5
0,28,29,80,142,356,251,162,29,0.18121337890625,0.26904296875,-0.33197021484375,0.8857421875,0.64111328125,-0.46875,0.6640625,-1.9375,-14.0625,-78.375
0,28,29,80,125,287,203,152,26,0.1929931640625,0.27587890625,-0.32989501953125,0.88189697265625,0.64306640625,-0.4755859375,0.67724609375,-9.25,-16.8125,-79.0625
0,29,27,68,125,291,155,119,26,0.20440673828125,0.2833251953125,-0.32745361328125,0.87786865234375,0.61376953125,-0.46240234375,0.66455078125,-6.625,-22.125,-80.75
0,27,28,73,115,277,154,117,25,0.21533203125,0.29156494140625,-0.3240966796875,0.873779296875,0.63916015625,-0.46435546875,0.66357421875,0.8125,-26.3125,-82.4375
0,27,26,80,92,196,137,80,27,0.22601318359375,0.30047607421875,-0.3201904296875,0.8695068359375,0.64404296875,-0.3955078125,0.66064453125,2.0,-30.25,-81.1875
0,25,25,85,75,164,130,43,25,0.2362060546875,0.30987548828125,-0.31585693359375,0.86505126953125,0.65576171875,-0.3828125,0.6484375,6.0625,-33.25,-81.25
0,26,28,86,66,143,129,40,25,0.2459716796875,0.3194580078125,-0.311767578125,0.8603515625,0.69091796875,-0.35400390625,0.634765625,5.625,-35.0,-78.6875
0,25,29,90,67,120,128,36,24,0.25494384765625,0.32916259765625,-0.3082275390625,0.8553466796875,0.66259765625,-0.31494140625,0.6044921875,3.375,-38.875,-74.375
0,25,29,104,67,115,120,35,24,0.262939453125,0.338623046875,-0.3050537109375,0.850341796875,0.65478515625,-0.30224609375,0.587890625,3.75,-40.5,-69.0625
0,25,33,131,69,115,113,32,21,0.2694091796875,0.34857177734375,-0.3016357421875,0.845458984375,0.67041015625,-0.30029296875,0.55908203125,9.8125,-44.1875,-63.5625
0,26,34,132,56,86,71,29,21,0.27398681640625,0.35888671875,-0.29815673828125,0.8409423828125,0.66162109375,-0.28271484375,0.53759765625,15.625,-48.25,-54.9375
0,24,36,141,56,76,46,25,22,0.27685546875,0.3695068359375,-0.29443359375,0.836669921875,0.66162109375,-0.25634765625,0.51806640625,20.8125,-52.25,-47.1875
0,22,36,141,49,76,41,26,23,0.27764892578125,0.380126953125,-0.29150390625,0.83270263671875,0.65869140625,-0.24267578125,0.4853515625,22.25,-55.5,-34.875
0,25,39,133,46,71,48,49,22,0.27593994140625,0.39105224609375,-0.28936767578125,0.82891845703125,0.65380859375,-0.216796875,0.451171875,24.5,-61.125,-20.9375
0,23,36,112,46,62,52,68,22,0.2716064453125,0.4022216796875,-0.2884521484375,0.8253173828125,0.67431640625,-0.18359375,0.4033203125,24.875,-65.9375,-4.25
0,25,35,139,48,56,94,90,26,0.26446533203125,0.4127197265625,-0.28948974609375,0.82208251953125,0.677734375,-0.22021484375,0.373046875,23.5625,-69.0625,13.0625
0,24,32,132,44,42,99,98,26,0.2545166015625,0.42218017578125,-0.292236328125,0.8194580078125,0.70703125,-0.21923828125,0.3544921875,21.1875,-68.9375,33.9375
0,26,31,139,41,38,112,123,29,0.2423095703125,0.43035888671875,-0.2969970703125,0.81719970703125,0.720703125,-0.19580078125,0.326171875,15.25,-67.6875,54.1875
0,24,30,135,41,40,128,122,29,0.22869873046875,0.4366455078125,-0.3033447265625,0.8154296875,0.73388671875,-0.2236328125,0.3359375,9.125,-63.4375,68.1875
0,26,31,125,36,38,136,114,31,0.21392822265625,0.44110107421875,-0.31146240234375,0.81396484375,0.75390625,-0.248046875,0.330078125,2.125,-58.5625,81.75
0,25,31,98,41,38,144,135,30,0.1982421875,0.444091796875,-0.32098388671875,0.8126220703125,0.7646484375,-0.2998046875,0.3193359375,-3.0,-54.625,90.8125
0,25,30,94,50,43,146,154,31,0.181884765625,0.44573974609375,-0.33111572265625,0.8115234375,0.79443359375,-0.33203125,0.3173828125,-5.125,-49.5625,98.8125
0,22,29,81,50,42,143,139,28,0.1658935546875,0.44537353515625,-0.34149169921875,0.810791015625,0.81787109375,-0.3681640625,0.32373046875,-9.125,-40.875,101.5625
0,24,27,81,51,41,138,147,28,0.15106201171875,0.44354248046875,-0.35198974609375,0.81024169921875,0.81787109375,-0.443359375,0.33935546875,-13.125,-30.9375,98.0625
0,23,26,93,57,45,139,168,30,0.1375732421875,0.44122314453125,-0.3612060546875,0.80987548828125,0.85302734375,-0.5009765625,0.337890625,-9.875,-23.9375,89.3125
0,23,26,82,55,42,120,151,29,0.1256103515625,0.43902587890625,-0.36846923828125,0.8096923828125,0.92529296875,-0.552734375,0.31640625,-3.125,-16.25,78.8125
0,24,26,77,48,35,118,138,27,0.116455078125,0.43621826171875,-0.3743896484375,0.80987548828125,0.9609375,-0.56103515625,0.322265625,-4.3125,-5.125,66.3125
0,25,26,82,48,34,117,139,27,0.11090087890625,0.4327392578125,-0.37933349609375,0.81024169921875,0.96044921875,-0.580078125,0.3173828125,-8.5625,6.9375,48.625
0,22,28,91,48,37,130,150,27,0.10882568359375,0.428955078125,-0.3828125,0.8109130859375,0.97900390625,-0.607421875,0.31884765625,-9.3125,18.5625,30.25
0,24,28,99,43,32,123,136,25,0.10931396484375,0.42498779296875,-0.38494873046875,0.8118896484375,1.00830078125,-0.62646484375,0.31689453125,-8.1875,27.75,15.75
0,23,27,100,38,33,111,126,24,0.111572265625,0.421142578125,-0.3858642578125,0.81317138671875,0.9765625,-0.61328125,0.2958984375,-5.375,33.0,4.4375
0,22,27,102,38,34,107,114,22,0.115234375,0.41748046875,-0.385498046875,0.814697265625,0.955078125,-0.5859375,0.28076171875,-2.125,37.6875,-5.0625
0,22,30,107,38,34,102,109,21,0.120361328125,0.4141845703125,-0.3843994140625,0.816162109375,0.96630859375,-0.5654296875,0.27685546875,-1.875,40.625,-12.6875
0,23,29,100,35,31,72,82,21,0.1263427734375,0.4111328125,-0.38311767578125,0.8173828125,0.95458984375,-0.56494140625,0.27978515625,-3.3125,40.6875,-19.125
0,22,30,91,35,33,79,81,22,0.13287353515625,0.40802001953125,-0.382080078125,0.81842041015625,0.94677734375,-0.55224609375,0.28515625,-6.375,41.5625,-21.0
0,21,31,84,33,29,87,88,23,0.14068603515625,0.404541015625,-0.3812255859375,0.8192138671875,0.92919921875,-0.5068359375,0.30078125,-12.1875,44.625,-24.375
0,21,33,83,34,30,88,87,23,0.149169921875,0.40020751953125,-0.3809814453125,0.82000732421875,0.90478515625,-0.53515625,0.298828125,-16.125,49.625,-27.0625
0,23,30,81,33,29,84,88,28,0.1568603515625,0.3956298828125,-0.38238525390625,0.82012939453125,0.86376953125,-0.56787109375,0.3017578125,-23.0625,44.875,-23.125
0,23,31,83,33,29,89,80,28,0.16302490234375,0.39190673828125,-0.3839111328125,0.82000732421875,0.880859375,-0.60693359375,0.31689453125,-19.0,36.8125,-19.3125
0,23,29,76,32,31,88,82,28,0.16815185546875,0.388427734375,-0.38458251953125,0.8203125,0.90625,-0.57373046875,0.33203125,-12.625,35.5,-13.8125
0,24,29,78,35,32,78,72,28,0.17327880859375,0.38421630859375,-0.38482666015625,0.82110595703125,0.8759765625,-0.51220703125,0.3427734375,-12.1875,39.25,-10.125
0,23,31,78,31,31,78,73,29,0.17919921875,0.378173828125,-0.38702392578125,0.82159423828125,0.8251953125,-0.53076171875,0.3671875,-25.5625,45.0,-8.75
0,22,31,108,31,31,80,70,26,0.1846923828125,0.37078857421875,-0.3909912109375,0.8218994140625,0.7939453125,-0.59619140625,0.37548828125,-33.375,46.875,-4.125
0,21,29,108,33,29,68,67,26,0.1884765625,0.36279296875,-0.394287109375,0.822998046875,0.7587890625,-0.6650390625,0.4150390625,-24.8125,45.625,0.6875
0,22,30,111,35,27,55,55,26,0.190673828125,0.35491943359375,-0.3951416015625,0.82550048828125,0.73583984375,-0.6025390625,0.44775390625,-9.0625,45.6875,7.4375
0,23,27,108,32,26,53,52,25,0.1925048828125,0.3466796875,-0.39459228515625,0.828857421875,0.693359375,-0.49560546875,0.47314453125,-4.4375,48.3125,12.5
0,22,27,120,36,28,50,52,27,0.194580078125,0.3375244140625,-0.39483642578125,0.83203125,0.64501953125,-0.44970703125,0.4951171875,-12.3125,50.0625,16.25
0,24,27,89,38,28,46,51,25,0.19647216796875,0.32672119140625,-0.39788818359375,0.83447265625,0.578125,-0.50537109375,0.4951171875,-26.625,51.6875,20.9375
0,24,28,107,38,29,41,50,26,0.19696044921875,0.3148193359375,-0.4019775390625,0.8369140625,0.53759765625,-0.59228515625,0.5009765625,-27.8125,51.6875,27.4375
0,23,29,101,43,29,51,65,26,0.1953125,0.3035888671875,-0.4044189453125,0.84027099609375,0.5224609375,-0.6123046875,0.5439453125,-14.0,46.0,33.6875
0,24,29,108,46,30,79,69,27,0.19195556640625,0.2933349609375,-0.40380859375,0.844970703125,0.53466796875,-0.556640625,0.5625,5.0625,43.1875,40.1875
0,26,26,105,45,28,82,70,25,0.1876220703125,0.28326416015625,-0.40234375,0.85009765625,0.49609375,-0.4716796875,0.5712890625,9.0,41.625,46.75
0,27,26,106,44,27,83,69,25,0.18231201171875,0.2723388671875,-0.402587890625,0.85467529296875,0.46533203125,-0.50048828125,0.57470703125,1.0625,40.625,53.9375
0,27,24,91,43,29,85,70,25,0.17572021484375,0.26007080078125,-0.4044189453125,0.8590087890625,0.43408203125,-0.58056640625,0.58984375,-4.4375,41.5,62.4375
0,26,24,102,35,28,77,56,24,0.16766357421875,0.2479248046875,-0.40521240234375,0.86383056640625,0.388671875,-0.56982421875,0.6015625,2.625,38.4375,68.1875
0,27,26,125,35,29,46,48,23,0.15911865234375,0.236328125,-0.404541015625,0.86895751953125,0.3515625,-0.47509765625,0.62353515625,7.5625,35.6875,70.6875
0,25,26,121,36,30,40,47,22,0.1512451171875,0.22430419921875,-0.40478515625,0.87347412109375,0.31494140625,-0.38916015625,0.62646484375,-3.3125,37.375,71.75
0,23,26,137,36,31,38,47,22,0.14434814453125,0.21124267578125,-0.40863037109375,0.8760986328125,0.30712890625,-0.44970703125,0.6201171875,-26.0,40.375,70.6875
0,25,26,139,36,30,43,60,23,0.13775634765625,0.19757080078125,-0.41510009765625,0.87725830078125,0.2841796875,-0.544921875,0.63037109375,-40.75,40.3125,69.75
0,24,25,132,37,35,78,55,25,0.13092041015625,0.18487548828125,-0.4210205078125,0.8782958984375,0.2939453125,-0.5341796875,0.64306640625,-39.1875,36.125,70.25
0,22,27,119,34,35,88,59,27,0.1236572265625,0.1708984375,-0.42669677734375,0.87945556640625,0.2490234375,-0.509765625,0.6484375,-39.9375,41.125,74.875
0,25,27,119,32,34,91,73,27,0.11700439453125,0.15692138671875,-0.4344482421875,0.879150390625,0.28271484375,-0.640625,0.64306640625,-50.5625,42.75,72.625
0,24,29,110,31,34,99,81,27,0.10955810546875,0.14556884765625,-0.44097900390625,0.8787841796875,0.33544921875,-0.80078125,0.60400390625,-34.0625,32.375,69.125
0,25,31,107,34,37,166,115,27,0.09869384765625,0.13592529296875,-0.4432373046875,0.8804931640625,0.2890625,-0.8154296875,0.580078125,-2.125,19.3125,78.8125
0,27,30,116,36,36,170,120,25,0.08551025390625,0.126220703125,-0.44281005859375,0.883544921875,0.26416015625,-0.7294921875,0.59423828125,12.5,16.125,91.125
0,29,30,109,38,37,172,120,25,0.072265625,0.116455078125,-0.44317626953125,0.8858642578125,0.2421875,-0.6494140625,0.58544921875,3.6875,15.875,94.0625
0,27,29,112,40,38,171,113,25,0.0595703125,0.1058349609375,-0.4468994140625,0.88629150390625,0.220703125,-0.74072265625,0.60888671875,-17.375,19.25,93.5
0,26,30,115,47,39,171,108,27,0.0472412109375,0.09466552734375,-0.45050048828125,0.886474609375,0.17236328125,-0.83740234375,0.62548828125,-14.9375,21.6875,90.6875
0,27,31,115,50,41,126,64,25,0.03363037109375,0.0845947265625,-0.45098876953125,0.8878173828125,0.18701171875,-0.87841796875,0.587890625,8.4375,16.5625,95.0625
0,26,33,111,47,35,102,58,25,0.01873779296875,0.07611083984375,-0.447998046875,0.89056396484375,0.20166015625,-0.8720703125,0.56591796875,32.1875,9.0625,98.5625
0,26,29,107,46,35,109,72,24,0.00299072265625,0.06695556640625,-0.442626953125,0.8941650390625,0.0712890625,-0.83203125,0.55517578125,46.625,6.6875,98.6875
0,27,32,112,45,35,116,74,26,-0.01263427734375,0.05859375,-0.43646240234375,0.897705078125,0.0810546875,-0.73046875,0.55029296875,47.3125,4.625,98.4375
0,30,31,97,38,35,161,83,26,-0.02728271484375,0.04974365234375,-0.4327392578125,0.89971923828125,0.048828125,-0.69775390625,0.556640625,29.8125,8.625,95.625
0,28,28,90,32,36,207,124,31,-0.041015625,0.04144287109375,-0.432373046875,0.8997802734375,0.0263671875,-0.73486328125,0.52880859375,10.4375,8.4375,90.5
0,28,27,81,30,36,213,124,32,-0.054443359375,0.03277587890625,-0.43438720703125,0.89849853515625,-0.0263671875,-0.77685546875,0.51318359375,-2.875,10.125,89.4375
0,26,29,105,27,36,206,115,31,-0.06756591796875,0.024658203125,-0.43768310546875,0.896240234375,-0.03515625,-0.8017578125,0.48876953125,-10.25,9.0,88.0
0,25,26,98,28,39,249,132,30,-0.078857421875,0.016357421875,-0.4404296875,0.8941650390625,-0.03271484375,-0.73486328125,0.509765625,-11.375,14.9375,80.25
0,23,24,93,35,38,223,128,30,-0.088134765625,0.008544921875,-0.4434814453125,0.89190673828125,-0.0458984375,-0.7138671875,0.46533203125,-12.3125,17.9375,68.8125
0,23,29,119,37,35,175,91,29,-0.09625244140625,0.00030517578125,-0.44744873046875,0.88909912109375,-0.10986328125,-0.75341796875,0.47021484375,-17.5,21.5,62.5625
0,25,33,118,43,38,175,88,30,-0.10333251953125,-0.007568359375,-0.45135498046875,0.88629150390625,-0.11962890625,-0.76416015625,0.43359375,-15.0625,22.3125,56.625
0,26,42,107,51,44,189,98,29,-0.1087646484375,-0.0150146484375,-0.4539794921875,0.88421630859375,-0.12109375,-0.759765625,0.44140625,-8.25,24.5,47.875
0,28,44,105,50,40,151,93,30,-0.112548828125,-0.02264404296875,-0.45550537109375,0.8828125,-0.12939453125,-0.7822265625,0.42431640625,1.4375,28.9375,40.4375
0,28,46,123,49,41,147,97,29,-0.1151123046875,-0.0313720703125,-0.4530029296875,0.88348388671875,-0.169921875,-0.81005859375,0.45849609375,27.3125,33.9375,34.9375
0,29,47,130,50,38,148,97,28,-0.11651611328125,-0.041748046875,-0.4449462890625,0.886962890625,-0.22265625,-0.71728515625,0.4306640625,63.0625,38.75,29.75
0,29,54,155,70,41,136,95,25,-0.11639404296875,-0.05206298828125,-0.43304443359375,0.89227294921875,-0.23046875,-0.6044921875,0.43896484375,83.875,39.5625,20.6875
0,28,54,203,73,34,114,83,27,-0.11480712890625,-0.06243896484375,-0.42071533203125,0.89776611328125,-0.2626953125,-0.5595703125,0.51513671875,82.25,43.0,12.1875
0,28,54,227,75,35,69,53,26,-0.11212158203125,-0.07318115234375,-0.4095458984375,0.90240478515625,-0.25439453125,-0.61962890625,0.59765625,74.625,50.625,10.0625
0,30,56,228,74,35,62,40,24,-0.1090087890625,-0.0853271484375,-0.39605712890625,0.90771484375,-0.28369140625,-0.6943359375,0.59814453125,94.4375,56.0625,12.25
0,29,55,216,74,37,38,27,24,-0.1072998046875,-0.09698486328125,-0.37890625,0.9140625,-0.38330078125,-0.67822265625,0.63427734375,112.75,48.75,20.3125
0,27,44,214,55,31,35,25,25,-0.104248046875,-0.10723876953125,-0.3570556640625,0.9219970703125,-0.39794921875,-0.5439453125,0.59521484375,139.875,40.375,11.6875
0,28,41,193,46,30,32,25,26,-0.099609375,-0.1185302734375,-0.3358154296875,0.9290771484375,-0.33349609375,-0.6728515625,0.6455078125,138.3125,51.0625,7.375
0,29,45,175,41,30,27,24,27,-0.0950927734375,-0.13226318359375,-0.312255859375,0.9359130859375,-0.359375,-0.603515625,0.6728515625,150.8125,62.375,13.9375
0,28,50,167,42,29,27,25,28,-0.0908203125,-0.14739990234375,-0.288818359375,0.94158935546875,-0.3857421875,-0.4716796875,0.68310546875,147.875,70.6875,18.0
0,30,50,191,40,24,25,25,27,-0.08587646484375,-0.1622314453125,-0.2691650390625,0.9454345703125,-0.34521484375,-0.35302734375,0.66943359375,123.4375,74.0625,11.8125
0,31,50,177,35,26,26,23,26,-0.081787109375,-0.1766357421875,-0.25390625,0.94744873046875,-0.353515625,-0.32568359375,0.64013671875,94.5625,71.625,10.3125
0,29,47,153,35,27,25,23,23,-0.07830810546875,-0.19049072265625,-0.24310302734375,0.9478759765625,-0.40478515625,-0.3466796875,0.59912109375,71.0625,68.6875,9.4375
0,27,42,151,34,26,24,24,23,-0.07470703125,-0.2042236328125,-0.23370361328125,0.94769287109375,-0.45947265625,-0.337890625,0.62060546875,61.875,67.875,6.75
0,26,36,198,37,27,23,24,23,-0.0704345703125,-0.21881103515625,-0.222900390625,0.94732666015625,-0.51318359375,-0.328125,0.67529296875,69.125,73.125,5.125
0,23,42,205,63,33,23,23,25,-0.06597900390625,-0.234375,-0.20977783203125,0.94696044921875,-0.55712890625,-0.29345703125,0.71826171875,80.6875,77.5625,7.5
0,23,53,216,72,37,25,26,27,-0.06256103515625,-0.24981689453125,-0.1962890625,0.94610595703125,-0.59912109375,-0.24462890625,0.74755859375,78.375,76.5,12.5625
0,24,52,217,70,36,26,26,26,-0.0576171875,-0.27935791015625,-0.17266845703125,0.9427490234375,-0.62939453125,-0.14697265625,0.76318359375,60.25,75.125,12.375
0,24,51,212,70,35,28,26,26,-0.0550537109375,-0.29388427734375,-0.16278076171875,0.94024658203125,-0.634765625,-0.1357421875,0.78564453125,52.0625,78.75,10.5625
0,23,48,168,67,35,30,26,28,-0.0533447265625,-0.30816650390625,-0.15460205078125,0.9371337890625,-0.65087890625,-0.11865234375,0.8134765625,40.0,80.375,12.0625
0,23,41,139,53,29,30,27,28,-0.05316162109375,-0.32208251953125,-0.14910888671875,0.933349609375,-0.6923828125,-0.15625,0.79296875,25.0625,77.8125,17.125
0,24,27,122,42,25,26,28,25,-0.0543212890625,-0.3359375,-0.14508056640625,0.92901611328125,-0.74560546875,-0.16943359375,0.7646484375,16.125,75.75,22.3125
0,24,27,152,48,25,25,27,26,-0.05615234375,-0.34912109375,-0.1402587890625,0.9248046875,-0.72998046875,-0.15576171875,0.763671875,18.6875,73.875,27.1875
0,24,28,155,47,26,25,26,25,-0.05926513671875,-0.3619384765625,-0.13592529296875,0.9202880859375,-0.728515625,-0.1044921875,0.748046875,11.3125,73.1875,31.4375
0,23,27,154,48,27,24,26,22,-0.0640869140625,-0.37469482421875,-0.134521484375,0.91510009765625,-0.75048828125,-0.09228515625,0.724609375,-8.0625,73.4375,34.0
0,24,25,141,38,28,24,27,21,-0.0701904296875,-0.3878173828125,-0.13531494140625,0.90899658203125,-0.798828125,-0.12109375,0.67431640625,-20.6875,74.6875,37.9375
0,23,23,139,37,34,48,22,21,-0.0770263671875,-0.40081787109375,-0.135986328125,0.9027099609375,-0.83935546875,-0.09912109375,0.65673828125,-22.625,73.125,41.0
0,25,25,82,36,86,57,23,23,-0.08367919921875,-0.41229248046875,-0.13525390625,0.89703369140625,-0.7900390625,-0.0947265625,0.6845703125,-15.125,68.6875,43.0625
0,23,23,68,37,91,56,21,24,-0.0906982421875,-0.42291259765625,-0.13604736328125,0.89129638671875,-0.7646484375,-0.12451171875,0.6494140625,-22.1875,66.1875,43.0
0,25,26,62,37,93,56,23,24,-0.0986328125,-0.4332275390625,-0.13916015625,0.885009765625,-0.83984375,-0.16455078125,0.58837890625,-34.8125,61.4375,43.875
0,26,26,57,34,94,56,21,24,-0.1068115234375,-0.443359375,-0.1422119140625,0.8785400390625,-0.89208984375,-0.20361328125,0.5703125,-33.25,59.5625,47.625
0,26,25,48,34,101,63,22,26,-0.11419677734375,-0.45318603515625,-0.142822265625,0.8724365234375,-0.87451171875,-0.1923828125,0.58349609375,-19.25,59.5625,49.4375
0,24,23,43,25,62,58,23,24,-0.121337890625,-0.462646484375,-0.1427001953125,0.86651611328125,-0.84765625,-0.146484375,0.57373046875,-16.9375,58.9375,48.0625
0,26,23,43,30,54,59,24,23,-0.12860107421875,-0.47064208984375,-0.14239501953125,0.8612060546875,-0.82177734375,-0.119140625,0.61962890625,-17.5,54.6875,46.9375
0,25,22,56,31,50,58,23,24,-0.136474609375,-0.47723388671875,-0.14459228515625,0.85601806640625,-0.79931640625,-0.1865234375,0.63427734375,-30.375,51.5,46.875
0,23,23,55,34,49,59,25,25,-0.1451416015625,-0.48345947265625,-0.14886474609375,0.85028076171875,-0.8720703125,-0.2265625,0.59619140625,-41.25,48.875,46.9375
0,23,23,57,33,27,44,25,24,-0.154296875,-0.48858642578125,-0.15380859375,0.8448486328125,-0.89013671875,-0.25634765625,0.62548828125,-46.3125,45.0,48.6875
0,23,24,58,36,43,58,25,24,-0.16387939453125,-0.49249267578125,-0.15814208984375,0.8399658203125,-0.84716796875,-0.26904296875,0.66259765625,-44.8125,41.375,52.375
0,23,25,57,33,45,60,25,25,-0.1744384765625,-0.49517822265625,-0.1630859375,0.8353271484375,-0.8447265625,-0.240234375,0.6650390625,-52.25,35.5,52.625
0,23,24,37,29,45,60,23,25,-0.1859130859375,-0.4967041015625,-0.17010498046875,0.83056640625,-0.884765625,-0.2509765625,0.64404296875,-65.75,29.5,50.5625
0,25,27,35,28,44,60,23,23,-0.19818115234375,-0.49713134765625,-0.1790771484375,0.8255615234375,-0.89013671875,-0.27685546875,0.6005859375,-77.625,24.1875,49.3125
0,25,27,30,28,43,50,23,25,-0.2108154296875,-0.49700927734375,-0.19000244140625,0.82000732421875,-0.908203125,-0.30859375,0.5595703125,-87.9375,22.375,47.75
0,25,26,26,23,65,57,23,24,-0.2222900390625,-0.49652099609375,-0.20074462890625,0.814697265625,-0.91796875,-0.34814453125,0.5498046875,-83.4375,20.8125,43.9375
0,26,26,26,33,138,60,24,27,-0.2315673828125,-0.49517822265625,-0.2095947265625,0.81072998046875,-0.92578125,-0.31591796875,0.56884765625,-69.0625,14.4375,34.625
0,26,26,24,33,148,61,26,26,-0.23828125,-0.4927978515625,-0.21697998046875,0.80828857421875,-0.92529296875,-0.2734375,0.5419921875,-55.8125,4.6875,20.1875
0,25,25,25,38,150,61,24,25,-0.24267578125,-0.48944091796875,-0.22357177734375,0.80718994140625,-0.9296875,-0.25,0.5078125,-45.9375,-4.25,6.875
0,24,26,28,39,153,61,26,25,-0.2451171875,-0.48529052734375,-0.22930908203125,0.807373046875,-0.919921875,-0.23046875,0.5078125,-37.0625,-10.3125,-4.625
0,22,26,29,40,144,40,26,25,-0.24554443359375,-0.4803466796875,-0.23516845703125,0.8084716796875,-0.9208984375,-0.24755859375,0.4931640625,-31.125,-14.8125,-16.3125
0,23,25,29,36,82,32,26,22,-0.24365234375,-0.47430419921875,-0.2412109375,0.8109130859375,-0.92919921875,-0.2900390625,0.5048828125,-25.0,-20.625,-29.4375
0,23,27,44,41,71,33,26,22,-0.2391357421875,-0.46722412109375,-0.2459716796875,0.81488037109375,-0.91259765625,-0.31201171875,0.52294921875,-11.25,-26.6875,-41.125
0,23,25,50,37,69,32,26,23,-0.2325439453125,-0.4599609375,-0.24932861328125,0.81988525390625,-0.92431640625,-0.32177734375,0.525390625,2.3125,-31.0,-50.125
0,26,28,50,41,82,34,27,21,-0.22442626953125,-0.45233154296875,-0.25146484375,0.82568359375,-0.923828125,-0.32666015625,0.529296875,12.1875,-34.8125,-56.1875
0,26,27,55,55,87,32,26,22,-0.21551513671875,-0.4442138671875,-0.25244140625,0.8321533203125,-0.92529296875,-0.28076171875,0.5390625,17.9375,-40.125,-63.125
0,25,29,56,61,90,35,26,22,-0.20574951171875,-0.4351806640625,-0.25347900390625,0.83905029296875,-0.91064453125,-0.2607421875,0.54541015625,18.375,-45.0,-71.125
0,24,28,67,60,84,33,25,21,-0.19561767578125,-0.42462158203125,-0.25579833984375,0.84613037109375,-0.90380859375,-0.2802734375,0.5576171875,11.5625,-51.0,-78.875
0,23,32,89,63,88,37,28,23,-0.18499755859375,-0.41326904296875,-0.25927734375,0.85308837890625,-0.90234375,-0.33837890625,0.5625,7.1875,-54.1875,-84.0
0,19,30,98,62,71,35,25,23,-0.17340087890625,-0.40130615234375,-0.26202392578125,0.8603515625,-0.88916015625,-0.36181640625,0.56494140625,13.4375,-58.125,-88.4375
0,22,32,98,63,119,86,28,25,-0.1610107421875,-0.38873291015625,-0.2635498046875,0.8680419921875,-0.86376953125,-0.34765625,0.57373046875,20.3125,-62.9375,-92.625
0,21,30,98,60,172,95,27,25,-0.14813232421875,-0.3758544921875,-0.26483154296875,0.8756103515625,-0.8408203125,-0.33544921875,0.58251953125,21.0625,-64.3125,-97.0625
0,24,30,91,76,204,103,28,24,-0.13409423828125,-0.36199951171875,-0.2667236328125,0.88311767578125,-0.8359375,-0.36669921875,0.56884765625,20.375,-64.4375,-102.6875
0,25,25,66,83,227,117,26,27,-0.1190185546875,-0.3475341796875,-0.26800537109375,0.890625,-0.8388671875,-0.390625,0.5771484375,25.3125,-67.0,-107.9375
0,28,25,55,86,262,134,26,28,-0.10247802734375,-0.33233642578125,-0.267822265625,0.89849853515625,-0.8173828125,-0.404296875,0.5771484375,35.6875,-70.3125,-114.375
0,27,26,56,98,293,154,34,29,-0.0845947265625,-0.3165283203125,-0.266845703125,0.90631103515625,-0.7900390625,-0.40869140625,0.5927734375,42.1875,-72.0,-120.4375
0,28,27,56,100,272,153,33,30,-0.06561279296875,-0.29998779296875,-0.264892578125,0.9140625,-0.78125,-0.42431640625,0.58544921875,48.5625,-75.375,-125.875
0,29,30,62,97,294,195,36,32,-0.0460205078125,-0.28265380859375,-0.2623291015625,0.9215087890625,-0.7587890625,-0.42529296875,0.60107421875,52.4375,-78.25,-129.5625
0,28,31,93,94,288,189,35,28,-0.0257568359375,-0.26446533203125,-0.25921630859375,0.92852783203125,-0.724609375,-0.4169921875,0.61376953125,55.1875,-81.75,-133.375
0,28,31,98,106,293,241,40,29,-0.00518798828125,-0.245361328125,-0.25677490234375,0.934814453125,-0.69580078125,-0.4404296875,0.630859375,51.0,-85.0,-137.5
0,28,31,95,96,256,230,37,27,0.01568603515625,-0.22503662109375,-0.25469970703125,0.9403076171875,-0.6787109375,-0.4228515625,0.64404296875,48.0,-90.375,-141.8125
0,28,33,101,96,268,236,40,27,0.0369873046875,-0.20343017578125,-0.25286865234375,0.94512939453125,-0.6494140625,-0.419921875,0.6640625,46.1875,-95.875,-146.5
0,25,28,94,96,234,204,38,27,0.05841064453125,-0.18072509765625,-0.2508544921875,0.94921875,-0.5693359375,-0.44140625,0.677734375,47.1875,-100.625,-148.1875
0,27,28,68,94,227,212,37,27,0.0792236328125,-0.15667724609375,-0.2490234375,0.95245361328125,-0.5048828125,-0.46630859375,0.69189453125,44.8125,-107.9375,-147.3125
0,25,26,75,80,196,170,35,26,0.09942626953125,-0.13140869140625,-0.24676513671875,0.9549560546875,-0.44287109375,-0.4541015625,0.73291015625,45.625,-114.4375,-145.4375
0,25,26,76,83,237,179,37,28,0.11920166015625,-0.10552978515625,-0.2437744140625,0.9566650390625,-0.37744140625,-0.42919921875,0.7529296875,48.375,-116.875,-143.8125
0,23,23,71,79,220,173,33,26,0.13812255859375,-0.0792236328125,-0.24090576171875,0.9573974609375,-0.3037109375,-0.34375,0.7685546875,44.9375,-119.625,-140.25
0,25,26,76,72,203,169,36,25,0.1563720703125,-0.052978515625,-0.2398681640625,0.9566650390625,-0.22998046875,-0.314453125,0.7666015625,32.125,-121.0625,-138.4375
0,24,29,85,110,227,161,37,25,0.17376708984375,-0.02691650390625,-0.2413330078125,0.954345703125,-0.15625,-0.3388671875,0.78759765625,16.0,-122.1875,-135.5
0,26,31,85,116,249,162,39,26,0.19036865234375,-0.0018310546875,-0.2449951171875,0.95062255859375,-0.1015625,-0.32958984375,0.78369140625,1.0,-120.125,-131.125
0,26,30,94,107,204,140,35,22,0.2056884765625,0.023193359375,-0.2496337890625,0.9459228515625,-0.03759765625,-0.34375,0.7783203125,-5.625,-122.5625,-124.875
0,26,30,94,108,203,144,37,24,0.2200927734375,0.04791259765625,-0.2540283203125,0.9405517578125,0.04248046875,-0.35986328125,0.79296875,-5.0625,-121.375,-120.125
0,27,31,91,108,216,183,37,26,0.2335205078125,0.0716552734375,-0.258544921875,0.9345703125,0.10009765625,-0.36572265625,0.8017578125,-7.8125,-117.8125,-114.1875
0,25,29,82,71,203,192,34,25,0.24530029296875,0.09454345703125,-0.26263427734375,0.9283447265625,0.13427734375,-0.32958984375,0.75732421875,-6.0625,-115.125,-104.5625
0,27,28,68,66,162,163,31,26,0.25555419921875,0.11669921875,-0.266845703125,0.92181396484375,0.1943359375,-0.3125,0.75,-7.9375,-113.875,-95.375
0,27,29,106,72,149,156,29,27,0.2650146484375,0.13861083984375,-0.2711181640625,0.91485595703125,0.24609375,-0.35595703125,0.76171875,-8.125,-114.25,-91.5
0,27,29,108,74,147,146,27,28,0.2733154296875,0.1600341796875,-0.27459716796875,0.90789794921875,0.2890625,-0.32421875,0.75146484375,-3.875,-111.9375,-84.9375
0,24,27,106,84,126,90,25,27,0.2802734375,0.18072509765625,-0.27728271484375,0.9010009765625,0.35986328125,-0.28369140625,0.73095703125,-0.125,-108.4375,-77.125
0,25,26,105,81,88,59,25,28,0.28619384765625,0.20062255859375,-0.2801513671875,0.89404296875,0.39990234375,-0.28662109375,0.70556640625,-1.1875,-106.0625,-70.25
0,24,26,116,75,97,114,28,26,0.29071044921875,0.2193603515625,-0.28363037109375,0.88702392578125,0.46044921875,-0.298828125,0.70361328125,-4.125,-103.5,-60.625
0,21,24,78,77,97,114,28,24,0.29364013671875,0.23675537109375,-0.28643798828125,0.88067626953125,0.4833984375,-0.29052734375,0.6865234375,-2.5,-99.9375,-49.875
0,22,25,75,74,97,114,28,23,0.29486083984375,0.253662109375,-0.28875732421875,0.874755859375,0.52587890625,-0.25732421875,0.6494140625,2.0,-97.375,-38.875
0,23,26,88,65,94,113,27,23,0.29449462890625,0.26995849609375,-0.29132080078125,0.869140625,0.57421875,-0.2685546875,0.62158203125,3.375,-95.25,-29.0
0,23,27,92,67,92,114,29,23,0.2926025390625,0.28515625,-0.29443359375,0.8638916015625,0.60302734375,-0.28369140625,0.60546875,3.125,-92.3125,-18.875
0,24,28,101,65,73,52,39,23,0.28924560546875,0.29937744140625,-0.2979736328125,0.8590087890625,0.62060546875,-0.28369140625,0.58154296875,2.375,-89.875,-8.75
0,25,28,113,60,59,53,47,24,0.2845458984375,0.31280517578125,-0.30206298828125,0.85430908203125,0.634765625,-0.26904296875,0.5556640625,0.625,-89.125,1.1875
0,25,28,112,57,47,64,62,24,0.2789306640625,0.32562255859375,-0.306396484375,0.849853515625,0.6513671875,-0.2802734375,0.5390625,1.125,-87.25,7.1875
0,26,28,108,59,45,64,64,23,0.272216796875,0.337646484375,-0.3114013671875,0.84552001953125,0.69287109375,-0.3134765625,0.51513671875,0.0,-85.25,14.1875
0,26,28,107,54,41,63,74,23,0.26446533203125,0.34881591796875,-0.31646728515625,0.84149169921875,0.72265625,-0.32470703125,0.4990234375,0.9375,-82.0,21.5625
0,24,26,117,59,40,62,68,23,0.2557373046875,0.35931396484375,-0.32196044921875,0.83770751953125,0.7275390625,-0.353515625,0.4736328125,1.6875,-80.375,27.6875
0,23,29,108,53,46,145,79,27,0.24627685546875,0.36956787109375,-0.32696533203125,0.83416748046875,0.73876953125,-0.34375,0.455078125,4.375,-79.5,31.5
0,24,29,113,54,44,148,84,27,0.23651123046875,0.3795166015625,-0.331298828125,0.83074951171875,0.75341796875,-0.341796875,0.4423828125,7.875,-77.75,33.0625
0,22,30,122,48,44,152,87,28,0.2266845703125,0.38897705078125,-0.33538818359375,0.8275146484375,0.78515625,-0.35498046875,0.419921875,9.0625,-73.9375,34.625
0,21,31,124,51,43,160,88,27,0.21673583984375,0.3975830078125,-0.3394775390625,0.82440185546875,0.81689453125,-0.396484375,0.3994140625,9.875,-68.6875,35.4375
0,22,30,95,49,43,195,125,28,0.20684814453125,0.40545654296875,-0.3431396484375,0.82159423828125,0.8349609375,-0.4228515625,0.3759765625,11.9375,-63.0625,35.625
0,23,30,88,46,39,212,147,26,0.1976318359375,0.41278076171875,-0.34600830078125,0.8189697265625,0.85302734375,-0.3994140625,0.359375,12.8125,-57.75,34.0
0,26,30,85,45,51,226,151,28,0.189697265625,0.419189453125,-0.34869384765625,0.81646728515625,0.86962890625,-0.3984375,0.3408203125,10.0,-49.25,30.0625
0,27,29,66,41,51,229,155,26,0.183837890625,0.42376708984375,-0.35137939453125,0.8143310546875,0.8955078125,-0.423828125,0.31689453125,4.5,-35.0,24.375
0,28,29,58,39,51,228,153,29,0.1796875,0.42681884765625,-0.35418701171875,0.81243896484375,0.90673828125,-0.470703125,0.291015625,0.5,-22.0625,17.75
0,27,30,72,36,52,209,134,29,0.177001953125,0.42877197265625,-0.3555908203125,0.8114013671875,0.90625,-0.51318359375,0.29248046875,4.6875,-11.4375,8.5625
0,27,29,83,40,50,162,112,29,0.17547607421875,0.42999267578125,-0.3551025390625,0.811279296875,0.90283203125,-0.47998046875,0.2802734375,11.3125,-1.0,2.25
0,24,27,92,41,37,133,100,29,0.1756591796875,0.43023681640625,-0.3536376953125,0.811767578125,0.88916015625,-0.4296875,0.2822265625,10.6875,9.375,-2.9375
0,25,26,95,43,35,126,89,30,0.17791748046875,0.428955078125,-0.3521728515625,0.81256103515625,0.8837890625,-0.41064453125,0.296875,3.9375,20.75,-8.375
0,24,28,104,43,35,120,86,29,0.1820068359375,0.4261474609375,-0.35137939453125,0.8134765625,0.87548828125,-0.416015625,0.30859375,-4.9375,30.25,-12.9375
0,24,27,110,43,33,105,71,28,0.18707275390625,0.42218017578125,-0.35052490234375,0.81475830078125,0.85693359375,-0.42138671875,0.32763671875,-7.875,37.9375,-15.625
0,24,27,109,38,37,72,77,25,0.19232177734375,0.41748046875,-0.34942626953125,0.81646728515625,0.849609375,-0.41796875,0.33935546875,-7.0,42.5,-15.4375
0,24,32,107,36,33,71,73,22,0.19775390625,0.4122314453125,-0.347900390625,0.8184814453125,0.8388671875,-0.40283203125,0.361328125,-6.0625,46.0625,-15.5
0,26,32,103,34,35,67,78,23,0.20379638671875,0.4058837890625,-0.34564208984375,0.82110595703125,0.822265625,-0.38330078125,0.38720703125,-5.0625,53.25,-16.5625
0,24,31,102,34,32,67,79,21,0.20989990234375,0.3984375,-0.3428955078125,0.8243408203125,0.81201171875,-0.376953125,0.40966796875,-3.3125,60.4375,-15.0
0,27,30,100,34,35,63,84,21,0.216064453125,0.3896484375,-0.34033203125,0.8280029296875,0.802734375,-0.37158203125,0.42724609375,-4.75,67.375,-11.625
0,26,34,119,35,29,54,59,23,0.22210693359375,0.3795166015625,-0.3375244140625,0.83221435546875,0.78662109375,-0.3740234375,0.46826171875,-5.0625,73.75,-8.8125
0,25,32,124,34,32,50,55,23,0.22735595703125,0.368408203125,-0.33441162109375,0.8370361328125,0.76611328125,-0.36279296875,0.47412109375,-1.5,79.0625,-2.75
0,23,34,125,36,30,50,48,22,0.2318115234375,0.35662841796875,-0.33087158203125,0.84234619140625,0.7509765625,-0.34423828125,0.4794921875,2.0,83.125,3.0625
0,25,32,129,34,30,40,43,22,0.23553466796875,0.3441162109375,-0.32720947265625,0.847900390625,0.74072265625,-0.3505859375,0.49560546875,3.6875,86.8125,8.125
0,23,34,135,35,31,41,41,24,0.23809814453125,0.3302001953125,-0.32293701171875,0.8543701171875,0.716796875,-0.32763671875,0.5263671875,7.75,92.875,17.1875
0,24,32,122,38,34,40,39,24,0.23931884765625,0.314697265625,-0.31903076171875,0.861328125,0.66748046875,-0.32958984375,0.5419921875,7.125,98.4375,27.3125
0,25,30,116,37,33,34,39,24,0.23968505859375,0.297607421875,-0.31610107421875,0.8682861328125,0.63671875,-0.365234375,0.580078125,2.75,101.625,34.125
0,25,30,119,38,34,33,37,22,0.23870849609375,0.2796630859375,-0.31268310546875,0.87579345703125,0.59814453125,-0.3701171875,0.59912109375,7.625,105.125,42.125
0,23,31,118,43,35,32,42,22,0.23577880859375,0.2611083984375,-0.30780029296875,0.88397216796875,0.56787109375,-0.3447265625,0.6064453125,18.125,107.875,51.75
0,24,35,134,45,32,40,37,22,0.23193359375,0.241455078125,-0.3031005859375,0.89215087890625,0.53369140625,-0.29736328125,0.6123046875,16.25,111.5625,59.0625
0,23,33,130,43,29,45,35,21,0.227294921875,0.2208251953125,-0.29962158203125,0.89984130859375,0.494140625,-0.32421875,0.63720703125,9.375,113.0625,66.0
0,23,35,139,48,31,46,37,23,0.2213134765625,0.19915771484375,-0.29541015625,0.90777587890625,0.45068359375,-0.40234375,0.6513671875,14.8125,117.1875,72.875
0,21,33,146,50,36,53,46,25,0.21368408203125,0.1761474609375,-0.28912353515625,0.91632080078125,0.40478515625,-0.43408203125,0.68017578125,27.0625,124.625,82.125
0,23,32,153,49,36,55,51,26,0.20379638671875,0.1529541015625,-0.2802734375,0.9254150390625,0.29736328125,-0.4404296875,0.70361328125,43.5625,124.875,91.8125
0,23,30,138,51,44,58,53,27,0.193115234375,0.12969970703125,-0.26995849609375,0.934326171875,0.23779296875,-0.40283203125,0.73291015625,51.25,125.125,94.8125
0,26,41,143,51,45,54,53,26,0.182861328125,0.10595703125,-0.25921630859375,0.9423828125,0.17041015625,-0.33935546875,0.7587890625,50.375,127.625,92.375
0,26,42,143,51,47,54,54,28,0.17333984375,0.0806884765625,-0.24969482421875,0.94921875,0.10595703125,-0.3271484375,0.73681640625,40.125,135.0,89.8125
0,27,45,138,53,75,60,53,31,0.1636962890625,0.05487060546875,-0.24212646484375,0.9547119140625,-0.0048828125,-0.396484375,0.74365234375,28.0,134.25,89.8125
0,26,62,119,51,79,58,44,30,0.1531982421875,0.02947998046875,-0.2352294921875,0.95928955078125,-0.10595703125,-0.47265625,0.80126953125,24.6875,129.0625,93.0
0,29,78,143,53,76,50,40,29,0.14208984375,0.00543212890625,-0.22760009765625,0.96331787109375,-0.16796875,-0.50244140625,0.81640625,29.6875,120.75,93.4375
0,29,76,165,58,83,52,40,29,0.13165283203125,-0.01605224609375,-0.21728515625,0.967041015625,-0.1552734375,-0.38916015625,0.853515625,44.3125,110.875,87.3125
0,29,76,183,53,83,52,36,28,0.122314453125,-0.0367431640625,-0.20928955078125,0.96942138671875,-0.15234375,-0.2490234375,0.8779296875,28.4375,106.5,79.125
0,28,80,235,97,184,132,27,25,0.11334228515625,-0.058837890625,-0.21026611328125,0.96923828125,-0.302734375,-0.22021484375,0.94921875,-36.9375,96.4375,68.375
0,29,68,270,110,195,141,31,25,0.10540771484375,-0.07733154296875,-0.22576904296875,0.96533203125,-0.45458984375,-0.345703125,0.908203125,-107.4375,79.0625,55.5
0,26,48,258,122,198,144,30,26,0.09783935546875,-0.09112548828125,-0.2479248046875,0.95947265625,-0.50146484375,-0.5068359375,0.9501953125,-142.5,50.0,43.4375
0,24,44,247,125,212,171,30,25,0.09246826171875,-0.10003662109375,-0.27093505859375,0.952880859375,-0.45556640625,-0.65625,1.00634765625,-143.5,27.625,23.875
0,27,42,234,128,248,187,36,25,0.0889892578125,-0.10382080078125,-0.29351806640625,0.94610595703125,-0.41650390625,-0.7578125,1.00927734375,-137.375,4.0,6.1875
0,29,33,196,97,203,146,38,24,0.0870361328125,-0.10247802734375,-0.31353759765625,0.94000244140625,-0.35107421875,-0.7841796875,1.0,-119.25,-19.4375,-8.5625
0,31,33,208,84,195,150,78,26,0.086181640625,-0.09765625,-0.329833984375,0.93499755859375,-0.23974609375,-0.81787109375,1.0126953125,-95.9375,-36.875,-19.625
0,30,32,213,65,199,164,81,25,0.0869140625,-0.0885009765625,-0.34234619140625,0.93133544921875,-0.138671875,-0.7978515625,1.01416015625,-73.9375,-51.6875,-30.4375
0,31,33,213,56,185,164,93,28,0.088134765625,-0.0771484375,-0.3525390625,0.92840576171875,-0.08251953125,-0.791015625,0.98583984375,-59.0,-60.3125,-34.875
0,30,33,228,56,147,152,95,26,0.08990478515625,-0.06475830078125,-0.360595703125,0.92608642578125,-0.07373046875,-0.7763671875,0.95751953125,-46.5,-65.625,-39.6875
0,28,31,218,56,139,153,95,26,0.09222412109375,-0.0518798828125,-0.36700439453125,0.92413330078125,-0.060546875,-0.7685546875,0.92236328125,-35.9375,-67.4375,-44.125
0,27,36,174,73,213,174,65,25,0.09490966796875,-0.0380859375,-0.37249755859375,0.92236328125,-0.03271484375,-0.765625,0.86669921875,-28.25,-71.5,-47.5
0,28,35,169,79,223,167,69,25,0.09814453125,-0.0238037109375,-0.37762451171875,0.92041015625,0.00244140625,-0.73828125,0.8212890625,-26.1875,-72.75,-51.125
0,27,34,169,79,221,161,79,22,0.10247802734375,-0.00848388671875,-0.38299560546875,0.91796875,0.0166015625,-0.75390625,0.8134765625,-27.375,-76.5625,-60.75
0,28,34,146,77,214,177,84,24,0.10772705078125,0.00799560546875,-0.38848876953125,0.9150390625,0.046875,-0.80322265625,0.7802734375,-25.1875,-81.75,-69.0625
0,29,36,165,88,199,177,85,24,0.1126708984375,0.02587890625,-0.393310546875,0.91204833984375,0.08544921875,-0.82421875,0.755859375,-19.125,-89.0,-70.8125
0,28,33,158,84,153,152,99,25,0.117431640625,0.04534912109375,-0.39691162109375,0.9091796875,0.13427734375,-0.7958984375,0.6943359375,-9.8125,-96.0625,-73.125
0,31,35,172,80,142,176,107,28,0.1226806640625,0.065673828125,-0.40069580078125,0.905517578125,0.1962890625,-0.78076171875,0.66259765625,-12.25,-98.5,-77.3125
0,32,31,182,80,142,161,91,27,0.12890625,0.08721923828125,-0.40472412109375,0.90106201171875,0.20361328125,-0.7841796875,0.62841796875,-17.1875,-102.5625,-84.3125
0,30,32,176,78,146,166,97,29,0.1351318359375,0.11004638671875,-0.4080810546875,0.8961181640625,0.1962890625,-0.7880859375,0.62109375,-13.8125,-109.6875,-88.875
0,31,36,168,91,243,185,112,32,0.14117431640625,0.134765625,-0.40966796875,0.89105224609375,0.23291015625,-0.74560546875,0.59521484375,-3.6875,-118.4375,-93.75
0,30,43,188,98,245,187,106,32,0.147216796875,0.16107177734375,-0.41168212890625,0.884765625,0.23876953125,-0.70556640625,0.56787109375,-7.5,-128.0,-98.4375
0,27,41,167,101,241,168,104,28,0.154052734375,0.18829345703125,-0.4136962890625,0.87725830078125,0.2822265625,-0.68701171875,0.515625,-10.375,-131.875,-105.25
0,31,50,198,140,350,202,110,35,0.161865234375,0.21575927734375,-0.41668701171875,0.86810302734375,0.33349609375,-0.7060546875,0.501953125,-19.9375,-133.5625,-111.875
0,31,49,239,145,361,201,108,34,0.16998291015625,0.2430419921875,-0.4195556640625,0.85784912109375,0.384765625,-0.662109375,0.47021484375,-22.5625,-132.8125,-113.625
0,28,46,229,132,305,194,94,32,0.17767333984375,0.27142333984375,-0.4202880859375,0.847412109375,0.37548828125,-0.67578125,0.48779296875,-11.1875,-138.3125,-118.375
0,30,45,225,121,291,188,97,32,0.1839599609375,0.3017578125,-0.417236328125,0.83721923828125,0.43115234375,-0.57958984375,0.45703125,11.6875,-146.625,-121.0625
0,32,49,227,123,296,186,90,36,0.1888427734375,0.33221435546875,-0.41290283203125,0.82666015625,0.52880859375,-0.49560546875,0.4111328125,18.75,-149.3125,-116.0
0,27,45,181,75,156,148,82,28,0.19342041015625,0.3609619140625,-0.40863037109375,0.815673828125,0.5673828125,-0.44970703125,0.3896484375,16.3125,-142.625,-110.4375
0,29,46,126,64,120,114,70,27,0.19769287109375,0.38702392578125,-0.404296875,0.80474853515625,0.61328125,-0.38623046875,0.35546875,14.0625,-130.5,-101.875
0,31,45,131,64,113,79,71,26,0.20159912109375,0.4102783203125,-0.3995361328125,0.7945556640625,0.65478515625,-0.3701171875,0.34375,15.3125,-116.4375,-93.9375
0,29,41,116,65,90,80,61,28,0.20440673828125,0.43072509765625,-0.394775390625,0.78533935546875,0.685546875,-0.37255859375,0.3330078125,17.125,-104.0,-81.5
0,29,42,127,52,66,191,77,28,0.2054443359375,0.448486328125,-0.38958740234375,0.7777099609375,0.70068359375,-0.36376953125,0.2861328125,23.375,-93.0,-67.9375
0,29,42,132,50,52,208,97,28,0.20489501953125,0.46429443359375,-0.38299560546875,0.77178955078125,0.7275390625,-0.322265625,0.251953125,35.125,-80.625,-56.1875
0,31,48,137,53,50,213,96,29,0.20330810546875,0.47784423828125,-0.37591552734375,0.76739501953125,0.7490234375,-0.2900390625,0.2265625,41.125,-67.3125,-44.75
0,34,49,132,51,45,218,94,29,0.2008056640625,0.4888916015625,-0.36962890625,0.76416015625,0.8232421875,-0.296875,0.2060546875,40.0625,-54.1875,-30.9375
0,36,49,133,48,38,216,98,29,0.19769287109375,0.49822998046875,-0.3642578125,0.76153564453125,0.85546875,-0.2734375,0.18212890625,37.5,-46.0625,-20.0625
0,35,45,123,49,34,130,85,26,0.19403076171875,0.50616455078125,-0.36004638671875,0.75921630859375,0.8828125,-0.255859375,0.1279296875,33.5625,-38.125,-9.9375
0,35,41,185,53,33,119,80,28,0.19091796875,0.5126953125,-0.35784912109375,0.7567138671875,0.94140625,-0.24072265625,0.08740234375,22.5,-30.8125,-1.5
0,35,43,222,54,34,119,98,29,0.18804931640625,0.51800537109375,-0.357421875,0.75396728515625,0.96435546875,-0.24609375,0.07861328125,11.875,-27.25,4.75
0,31,49,228,52,36,115,97,27,0.18408203125,0.5225830078125,-0.35845947265625,0.75128173828125,0.9677734375,-0.2958984375,0.06396484375,9.125,-28.0625,12.4375
0,29,48,221,49,40,127,95,28,0.17828369140625,0.527587890625,-0.359619140625,0.7486572265625,1.0087890625,-0.32421875,0.041015625,15.25,-32.0625,19.4375
0,29,50,232,47,39,135,101,37,0.17181396484375,0.5328369140625,-0.36029052734375,0.74615478515625,1.021484375,-0.3251953125,0.03271484375,20.0,-33.75,20.9375
0,32,50,192,49,41,122,95,34,0.16668701171875,0.53729248046875,-0.361572265625,0.743408203125,1.0419921875,-0.29736328125,0.02197265625,11.5625,-29.0,20.9375
0,33,43,146,42,40,117,81,34,0.1639404296875,0.54010009765625,-0.36419677734375,0.74078369140625,1.041015625,-0.3251953125,0.029296875,-2.8125,-19.125,17.25
0,31,33,143,44,38,133,83,35,0.1627197265625,0.5406494140625,-0.36663818359375,0.7393798828125,1.025390625,-0.37890625,0.04150390625,-6.125,-3.6875,12.0
0,34,35,162,48,33,139,85,34,0.16302490234375,0.539306640625,-0.36767578125,0.73980712890625,1.0009765625,-0.376953125,0.06640625,-3.625,12.6875,6.625
0,34,34,147,47,33,126,84,28,0.164794921875,0.53619384765625,-0.36724853515625,0.74188232421875,0.97216796875,-0.36474609375,0.08837890625,-0.5625,28.875,1.625
0,32,42,237,42,30,128,84,31,0.16876220703125,0.531494140625,-0.36614990234375,0.74493408203125,0.94921875,-0.34619140625,0.095703125,-4.125,43.5,-5.5
0,29,41,280,40,31,140,83,33,0.174560546875,0.5252685546875,-0.365234375,0.7484130859375,0.970703125,-0.369140625,0.109375,-10.375,55.625,-10.1875
0,29,41,277,44,31,122,80,31,0.18157958984375,0.51739501953125,-0.36376953125,0.7529296875,0.95166015625,-0.396484375,0.13037109375,-10.9375,68.3125,-14.6875
0,27,41,268,42,32,109,76,33,0.18841552734375,0.50836181640625,-0.36175537109375,0.75836181640625,0.8955078125,-0.39306640625,0.1728515625,-8.0625,74.4375,-13.625
0,24,48,297,47,32,106,72,31,0.19464111328125,0.49896240234375,-0.3604736328125,0.76361083984375,0.85693359375,-0.376953125,0.1953125,-10.125,72.375,-8.125
0,25,42,236,45,31,95,57,29,0.20025634765625,0.489990234375,-0.3592529296875,0.7685546875,0.8779296875,-0.376953125,0.23681640625,-9.6875,67.875,-5.9375
0,23,45,196,46,30,76,52,27,0.2056884765625,0.480712890625,-0.35687255859375,0.7740478515625,0.89013671875,-0.37548828125,0.279296875,-3.8125,70.125,-6.5625
0,24,46,200,45,31,125,63,35,0.21185302734375,0.4700927734375,-0.3536376953125,0.7803955078125,0.8662109375,-0.341796875,0.29345703125,-1.9375,81.375,-7.0
0,23,44,206,46,31,126,65,31,0.21923828125,0.4580078125,-0.35223388671875,0.7861328125,0.82275390625,-0.29833984375,0.2998046875,-17.3125,87.1875,-3.125
0,23,41,165,41,29,123,59,31,0.2259521484375,0.44439697265625,-0.35284423828125,0.791748046875,0.802734375,-0.37158203125,0.31396484375,-24.9375,89.875,3.5
0,23,49,176,45,33,125,60,31,0.23040771484375,0.42987060546875,-0.353271484375,0.79827880859375,0.78076171875,-0.4365234375,0.32861328125,-15.5625,92.25,12.75
0,25,44,158,46,31,127,64,30,0.23223876953125,0.41558837890625,-0.35205078125,0.80584716796875,0.7900390625,-0.42529296875,0.349609375,0.1875,91.125,23.4375
0,23,45,152,48,31,79,56,23,0.23193359375,0.40185546875,-0.3497314453125,0.8138427734375,0.76904296875,-0.38330078125,0.369140625,11.0625,87.0,32.625
0,27,45,157,46,33,96,57,26,0.23114013671875,0.3887939453125,-0.34649658203125,0.82177734375,0.76708984375,-0.29443359375,0.38671875,14.4375,85.0625,37.6875
0,32,39,151,60,33,95,55,33,0.231689453125,0.37445068359375,-0.3450927734375,0.82879638671875,0.76220703125,-0.27490234375,0.3828125,-1.0,90.6875,38.1875
0,31,37,113,61,30,94,55,33,0.2330322265625,0.3575439453125,-0.3482666015625,0.83453369140625,0.73388671875,-0.404296875,0.3837890625,-26.25,96.375,41.25
0,31,41,117,62,32,88,51,32,0.2320556640625,0.33892822265625,-0.35443115234375,0.8399658203125,0.69677734375,-0.51806640625,0.408203125,-35.5625,94.4375,56.25
0,34,44,149,61,34,89,50,32,0.22723388671875,0.320556640625,-0.36004638671875,0.84613037109375,0.662109375,-0.5537109375,0.4541015625,-23.625,85.5,73.5
0,31,45,133,60,35,72,66,32,0.219970703125,0.30340576171875,-0.3609619140625,0.85394287109375,0.63427734375,-0.474609375,0.52197265625,3.3125,81.25,81.625
0,30,46,143,50,39,70,65,24,0.212646484375,0.285888671875,-0.35772705078125,0.8631591796875,0.57861328125,-0.361328125,0.55322265625,21.3125,88.9375,82.0
0,38,76,176,51,44,69,64,29,0.20654296875,0.26654052734375,-0.3551025390625,0.871826171875,0.51171875,-0.369140625,0.591796875,11.625,97.0,78.5625
0,40,84,255,52,44,70,62,29,0.2010498046875,0.24603271484375,-0.3538818359375,0.879638671875,0.48291015625,-0.44677734375,0.67236328125,1.25,98.75,76.125
0,39,87,250,58,57,75,72,30,0.19525146484375,0.22515869140625,-0.3514404296875,0.887451171875,0.44287109375,-0.49365234375,0.72900390625,7.25,99.8125,75.3125
0,40,89,258,62,56,74,69,35,0.18994140625,0.20465087890625,-0.348388671875,0.894775390625,0.39697265625,-0.45849609375,0.740234375,12.4375,104.5,72.5
0,39,89,258,61,54,79,72,35,0.1851806640625,0.1834716796875,-0.34442138671875,0.90185546875,0.38427734375,-0.44140625,0.73388671875,15.4375,110.8125,69.8125
0,32,64,238,55,49,80,72,30,0.18048095703125,0.16180419921875,-0.34173583984375,0.907958984375,0.35205078125,-0.5341796875,0.7294921875,7.375,110.875,70.375
0,29,55,159,54,50,79,74,31,0.174560546875,0.1402587890625,-0.3392333984375,0.91363525390625,0.30322265625,-0.61474609375,0.7421875,7.625,107.4375,75.5
0,30,59,146,49,31,72,62,30,0.1668701171875,0.11956787109375,-0.33404541015625,0.919921875,0.2197265625,-0.6005859375,0.7587890625,25.0,102.1875,81.125
0,29,59,147,48,36,59,42,26,0.15814208984375,0.0992431640625,-0.3253173828125,0.92694091796875,0.1962890625,-0.54296875,0.751953125,45.8125,102.5625,84.9375
0,29,58,141,50,36,54,36,26,0.1497802734375,0.07720947265625,-0.31671142578125,0.93341064453125,0.171875,-0.482421875,0.728515625,41.9375,112.0,86.3125
0,28,58,152,53,35,50,33,25,0.14202880859375,0.05426025390625,-0.31011962890625,0.9384765625,0.06396484375,-0.4912109375,0.72314453125,28.0,115.25,83.5
0,26,60,142,50,34,47,30,26,0.13360595703125,0.031494140625,-0.3043212890625,0.942626953125,-0.04248046875,-0.52294921875,0.72509765625,22.75,111.0,85.5625
0,24,46,140,48,37,39,28,26,0.1240234375,0.0101318359375,-0.2974853515625,0.946533203125,-0.0869140625,-0.5537109375,0.7373046875,30.0,102.1875,88.8125
0,25,43,155,46,29,34,23,23,0.113525390625,-0.01104736328125,-0.2889404296875,0.95050048828125,-0.06103515625,-0.44287109375,0.76416015625,34.8125,97.25,91.5625
0,25,49,156,45,28,30,24,25,0.1036376953125,-0.0323486328125,-0.282958984375,0.95294189453125,-0.05517578125,-0.38330078125,0.748046875,20.4375,102.5,90.8125
0,25,46,175,47,33,29,25,26,0.09320068359375,-0.05517578125,-0.2803955078125,0.9537353515625,-0.11474609375,-0.41259765625,0.724609375,-0.9375,108.1875,94.1875
0,27,39,181,47,33,28,26,26,0.08123779296875,-0.07879638671875,-0.27923583984375,0.9534912109375,-0.21337890625,-0.45751953125,0.7236328125,-10.625,108.75,102.375
0,28,40,180,45,36,32,28,28,0.068115234375,-0.1025390625,-0.27691650390625,0.95294189453125,-0.263671875,-0.48779296875,0.73291015625,-5.375,108.5,109.4375
0,27,42,185,46,37,28,28,28,0.0543212890625,-0.126953125,-0.2725830078125,0.9521484375,-0.31494140625,-0.458984375,0.724609375,4.6875,111.5625,115.0625
0,28,45,183,46,43,29,28,28,0.0399169921875,-0.15185546875,-0.26800537109375,0.95050048828125,-0.41552734375,-0.427734375,0.70068359375,3.6875,113.625,118.4375
0,27,45,208,42,43,29,28,28,0.0250244140625,-0.17706298828125,-0.264404296875,0.9476318359375,-0.54931640625,-0.369140625,0.6962890625,-4.5625,113.9375,119.5
0,28,44,230,56,55,31,28,26,0.01043701171875,-0.20196533203125,-0.26263427734375,0.9434814453125,-0.64794921875,-0.35693359375,0.71630859375,-16.3125,113.375,114.75
0,30,45,228,58,52,28,27,24,-0.00360107421875,-0.2259521484375,-0.261474609375,0.9383544921875,-0.65771484375,-0.38720703125,0.70166015625,-20.125,111.0625,110.5625
0,29,42,219,63,52,30,27,25,-0.01763916015625,-0.2490234375,-0.25958251953125,0.932861328125,-0.67724609375,-0.419921875,0.69677734375,-16.0,107.25,110.4375
0,30,39,219,63,47,28,26,26,-0.03131103515625,-0.2708740234375,-0.25567626953125,0.927490234375,-0.716796875,-0.44677734375,0.7158203125,-4.375,101.1875,110.0
0,31,41,202,68,47,30,25,26,-0.04443359375,-0.2916259765625,-0.24884033203125,0.9224853515625,-0.74462890625,-0.41650390625,0.6962890625,12.0,95.1875,110.125
0,31,42,201,59,41,52,26,27,-0.05718994140625,-0.310791015625,-0.240966796875,0.9176025390625,-0.75830078125,-0.34375,0.6826171875,17.5625,87.25,107.625
0,29,49,217,59,93,52,27,26,-0.07000732421875,-0.328369140625,-0.23455810546875,0.91229248046875,-0.806640625,-0.29150390625,0.6953125,8.0,80.25,102.375
0,28,50,202,58,122,57,28,27,-0.0838623046875,-0.34478759765625,-0.231201171875,0.9058837890625,-0.8408203125,-0.2265625,0.71337890625,-18.25,72.1875,92.6875
0,25,44,238,61,127,64,28,23,-0.0970458984375,-0.3580322265625,-0.23272705078125,0.89898681640625,-0.873046875,-0.21337890625,0.75244140625,-46.125,63.0625,75.3125
0,28,41,216,73,132,113,34,23,-0.10906982421875,-0.36767578125,-0.23858642578125,0.89215087890625,-0.88623046875,-0.25048828125,0.7490234375,-66.0625,49.5,57.5625
0,25,43,193,73,130,160,47,26,-0.119873046875,-0.37359619140625,-0.24713134765625,0.885986328125,-0.90869140625,-0.314453125,0.783203125,-77.375,35.0,42.75
0,23,34,191,75,102,166,46,25,-0.127197265625,-0.37506103515625,-0.25579833984375,0.88189697265625,-0.90576171875,-0.49169921875,0.8056640625,-64.25,15.875,25.6875
0,27,34,209,91,176,183,52,26,-0.130615234375,-0.37347412109375,-0.26080322265625,0.88055419921875,-0.87939453125,-0.55322265625,0.76611328125,-32.6875,-3.8125,11.1875
0,28,32,175,91,199,187,54,27,-0.130859375,-0.3695068359375,-0.26116943359375,0.88214111328125,-0.83837890625,-0.501953125,0.73046875,-0.875,-21.1875,-2.75
0,25,35,181,77,197,167,52,27,-0.128662109375,-0.3636474609375,-0.25946044921875,0.8853759765625,-0.8203125,-0.40234375,0.70556640625,12.6875,-33.6875,-19.625
0,24,32,173,78,211,142,41,23,-0.12548828125,-0.35589599609375,-0.2601318359375,0.8887939453125,-0.81103515625,-0.3857421875,0.6689453125,1.5625,-43.375,-34.0625
0,27,35,157,101,291,173,45,25,-0.1214599609375,-0.345703125,-0.26348876953125,0.892333984375,-0.787109375,-0.4365234375,0.67138671875,-10.1875,-53.0,-45.6875
0,24,32,159,93,265,170,38,21,-0.1160888671875,-0.3338623046875,-0.26812744140625,0.89617919921875,-0.7568359375,-0.46142578125,0.67431640625,-14.125,-59.4375,-57.3125
0,26,37,171,104,286,195,43,26,-0.1092529296875,-0.320556640625,-0.27349853515625,0.9002685546875,-0.73583984375,-0.5126953125,0.65673828125,-13.5,-65.9375,-67.25
0,24,36,158,105,292,205,41,27,-0.10101318359375,-0.306640625,-0.2786865234375,0.90447998046875,-0.70263671875,-0.509765625,0.63720703125,-9.9375,-68.5625,-76.375
0,25,37,161,110,293,189,42,27,-0.09149169921875,-0.29180908203125,-0.28399658203125,0.90875244140625,-0.68994140625,-0.541015625,0.6123046875,-7.375,-73.5625,-85.375
0,27,38,171,110,274,169,38,29,-0.0811767578125,-0.27545166015625,-0.28961181640625,0.91302490234375,-0.64599609375,-0.57275390625,0.63330078125,-7.6875,-79.375,-91.5
0,28,38,147,111,280,191,44,31,-0.0697021484375,-0.258056640625,-0.29541015625,0.91717529296875,-0.58984375,-0.63525390625,0.6494140625,-6.0,-81.3125,-98.0
0,26,35,122,113,249,184,36,28,-0.05694580078125,-0.2396240234375,-0.2991943359375,0.921875,-0.5546875,-0.646484375,0.6650390625,1.3125,-82.0625,-105.4375
0,27,34,116,129,277,187,37,28,-0.04290771484375,-0.220703125,-0.3013916015625,0.9266357421875,-0.533203125,-0.64599609375,0.685546875,11.3125,-83.125,-111.5625
0,27,38,167,128,285,191,37,30,-0.02813720703125,-0.20111083984375,-0.3028564453125,0.93115234375,-0.4765625,-0.6298828125,0.6904296875,15.25,-85.1875,-115.375
0,23,33,172,128,262,206,39,28,-0.01263427734375,-0.180908203125,-0.3045654296875,0.93505859375,-0.41845703125,-0.6376953125,0.69873046875,13.625,-86.625,-120.875
0,21,33,190,133,258,212,41,27,0.00433349609375,-0.1600341796875,-0.30560302734375,0.9385986328125,-0.35400390625,-0.634765625,0.70654296875,18.0,-86.9375,-128.6875
0,24,34,194,132,268,210,43,28,0.0224609375,-0.1390380859375,-0.305419921875,0.94171142578125,-0.296875,-0.658203125,0.75146484375,24.8125,-85.0,-134.4375
0,22,33,202,131,296,228,44,28,0.0413818359375,-0.1181640625,-0.3038330078125,0.9444580078125,-0.259765625,-0.67724609375,0.77099609375,32.5625,-82.5,-137.125
0,24,29,169,150,321,287,47,30,0.06024169921875,-0.09716796875,-0.30084228515625,0.94677734375,-0.23876953125,-0.63671875,0.7607421875,39.0625,-82.875,-137.0625
0,25,31,203,142,299,287,47,31,0.07916259765625,-0.0753173828125,-0.29693603515625,0.9486083984375,-0.20654296875,-0.58203125,0.76123046875,43.0625,-87.25,-138.5625
0,26,31,184,131,285,272,41,29,0.09844970703125,-0.05328369140625,-0.292724609375,0.9495849609375,-0.1435546875,-0.52490234375,0.77587890625,42.5625,-87.0,-141.25
0,24,33,183,129,331,276,38,28,0.1182861328125,-0.03131103515625,-0.2890625,0.949462890625,-0.07861328125,-0.52685546875,0.775390625,38.3125,-85.6875,-144.8125
0,25,34,195,119,307,251,38,27,0.1378173828125,-0.0089111328125,-0.2857666015625,0.94830322265625,-0.01611328125,-0.51025390625,0.78955078125,34.5625,-88.25,-144.125
0,24,46,189,100,268,189,35,26,0.15631103515625,0.01348876953125,-0.2825927734375,0.9462890625,0.01171875,-0.486328125,0.7939453125,32.1875,-90.0625,-139.5625
0,24,48,152,88,265,165,32,24,0.17425537109375,0.0360107421875,-0.2796630859375,0.94342041015625,0.02685546875,-0.43603515625,0.83349609375,29.1875,-92.5625,-137.6875
0,27,49,156,105,325,158,35,25,0.19195556640625,0.05841064453125,-0.27557373046875,0.9400634765625,0.10693359375,-0.3994140625,0.80615234375,34.0625,-90.9375,-136.4375
0,26,49,167,103,271,126,35,26,0.20904541015625,0.080322265625,-0.27301025390625,0.935546875,0.1650390625,-0.42236328125,0.8271484375,24.375,-91.0625,-133.1875
0,28,53,157,111,238,131,35,28,0.22454833984375,0.10186767578125,-0.27197265625,0.93011474609375,0.19091796875,-0.3779296875,0.81005859375,14.625,-94.3125,-124.4375
0,28,51,187,104,230,109,31,27,0.238525390625,0.1234130859375,-0.2724609375,0.92388916015625,0.23583984375,-0.37890625,0.822265625,6.1875,-99.1875,-116.25
0,28,51,182,110,230,135,32,26,0.2515869140625,0.14520263671875,-0.2724609375,0.917236328125,0.2998046875,-0.3359375,0.7919921875,8.9375,-100.875,-112.625
0,25,50,181,97,119,125,25,25,0.26397705078125,0.1668701171875,-0.27276611328125,0.90997314453125,0.341796875,-0.3134765625,0.7919921875,6.875,-102.6875,-109.1875
0,25,49,195,90,99,126,25,23,0.2752685546875,0.18804931640625,-0.2738037109375,0.902099609375,0.41357421875,-0.31201171875,0.77490234375,2.25,-102.75,-102.875
0,20,43,185,76,98,117,23,19,0.28533935546875,0.2086181640625,-0.27587890625,0.893798828125,0.43115234375,-0.26513671875,0.73828125,-3.375,-103.75,-94.8125
0,23,38,166,83,106,122,25,19,0.29412841796875,0.22808837890625,-0.2789306640625,0.88519287109375,0.4755859375,-0.2626953125,0.7109375,-9.1875,-102.25,-85.9375
0,23,36,160,74,103,100,24,19,0.30206298828125,0.24688720703125,-0.28228759765625,0.87640380859375,0.51171875,-0.29443359375,0.67822265625,-10.0625,-100.6875,-80.8125
0,22,37,160,68,101,94,26,20,0.30859375,0.2647705078125,-0.28472900390625,0.8680419921875,0.5263671875,-0.26904296875,0.67578125,-6.9375,-99.4375,-72.5625
0,24,36,127,68,90,91,28,21,0.31427001953125,0.28192138671875,-0.28692626953125,0.85986328125,0.55224609375,-0.22509765625,0.642578125,-6.25,-96.5,-65.625
0,25,36,138,73,77,89,26,22,0.31915283203125,0.298583984375,-0.28973388671875,0.8514404296875,0.58935546875,-0.228515625,0.6103515625,-7.9375,-95.1875,-60.6875
0,25,31,138,66,63,87,45,23,0.3231201171875,0.31451416015625,-0.293212890625,0.84295654296875,0.62255859375,-0.22705078125,0.58154296875,-10.875,-93.8125,-54.1875
0,26,30,136,68,57,68,47,24,0.32611083984375,0.32940673828125,-0.297119140625,0.834716796875,0.63818359375,-0.24365234375,0.56201171875,-11.375,-91.375,-47.875
0,27,36,144,70,52,70,50,25,0.3282470703125,0.34356689453125,-0.30133056640625,0.82666015625,0.64697265625,-0.232421875,0.54052734375,-12.3125,-89.875,-41.5
0,26,40,159,68,49,105,60,26,0.329345703125,0.35723876953125,-0.3056640625,0.81878662109375,0.65771484375,-0.23291015625,0.513671875,-11.0,-89.3125,-35.9375
0,26,43,170,57,49,113,70,26,0.32952880859375,0.37054443359375,-0.3101806640625,0.81103515625,0.66064453125,-0.2265625,0.49609375,-10.5,-89.625,-30.3125
0,24,42,162,56,41,109,63,25,0.3287353515625,0.38336181640625,-0.31500244140625,0.80352783203125,0.7021484375,-0.23681640625,0.458984375,-9.6875,-87.75,-24.1875
0,24,42,161,53,40,114,62,26,0.3265380859375,0.39593505859375,-0.3201904296875,0.7962646484375,0.728515625,-0.26025390625,0.43310546875,-7.3125,-88.4375,-17.3125
0,23,38,175,52,39,109,69,26,0.32269287109375,0.4085693359375,-0.32464599609375,0.78961181640625,0.74609375,-0.2470703125,0.40771484375,0.625,-88.8125,-9.75
0,22,33,154,52,45,148,76,24,0.31793212890625,0.4208984375,-0.32818603515625,0.7835693359375,0.7587890625,-0.2197265625,0.39013671875,6.5,-86.25,-4.3125
0,22,34,200,52,45,169,80,25,0.31292724609375,0.4322509765625,-0.33154296875,0.7779541015625,0.771484375,-0.1953125,0.3779296875,6.0625,-81.5625,0.125
0,30,35,203,48,45,186,90,26,0.307861328125,0.4425048828125,-0.3350830078125,0.772705078125,0.796875,-0.20751953125,0.3662109375,4.375,-76.375,3.1875
0,30,35,212,48,46,196,98,30,0.30224609375,0.45196533203125,-0.33935546875,0.767578125,0.806640625,-0.2255859375,0.3486328125,1.875,-74.625,8.375
0,36,35,201,50,46,216,98,38,0.29510498046875,0.46124267578125,-0.34454345703125,0.762451171875,0.8095703125,-0.23486328125,0.3076171875,1.75,-77.4375,17.1875
0,38,37,211,53,48,204,94,40,0.28692626953125,0.47076416015625,-0.35052490234375,0.757080078125,0.82080078125,-0.25732421875,0.28271484375,1.4375,-82.375,22.3125
0,39,37,144,55,51,197,89,41,0.27789306640625,0.4805908203125,-0.35687255859375,0.75128173828125,0.8740234375,-0.2734375,0.23583984375,2.125,-84.5625,25.75
0,36,38,134,54,51,193,92,41,0.268310546875,0.4903564453125,-0.36322021484375,0.745361328125,0.92041015625,-0.298828125,0.1953125,4.3125,-84.4375,28.0
0,47,40,152,58,50,213,106,104,0.259033203125,0.49951171875,-0.368896484375,0.73974609375,0.96630859375,-0.294921875,0.17041015625,5.3125,-78.6875,28.1875
0,59,40,173,56,48,193,106,115,0.2510986328125,0.50750732421875,-0.37408447265625,0.73443603515625,1.01904296875,-0.28759765625,0.15185546875,2.125,-68.875,25.875
0,61,42,166,55,45,166,107,117,0.2449951171875,0.51409912109375,-0.37841796875,0.72967529296875,1.0322265625,-0.2998046875,0.12255859375,0.1875,-55.6875,19.375
0,61,40,164,47,36,161,105,118,0.24078369140625,0.51904296875,-0.381591796875,0.72589111328125,1.056640625,-0.3154296875,0.10888671875,-0.625,-39.75,12.6875
0,61,40,164,49,38,168,97,119,0.2388916015625,0.52227783203125,-0.38330078125,0.72332763671875,1.10400390625,-0.33837890625,0.09375,-0.9375,-21.375,3.6875
0,58,41,130,45,34,129,73,74,0.239501953125,0.5238037109375,-0.383544921875,0.72186279296875,1.1201171875,-0.35302734375,0.0791015625,-1.9375,-2.4375,-6.625
0,43,41,99,41,36,129,84,51,0.24285888671875,0.523193359375,-0.3826904296875,0.7216796875,1.08837890625,-0.33056640625,0.08642578125,-5.875,16.9375,-14.3125
0,43,44,101,42,29,125,77,46,0.248779296875,0.52020263671875,-0.380859375,0.7227783203125,1.04443359375,-0.32421875,0.091796875,-9.75,37.5625,-22.0
0,41,46,121,48,32,118,78,43,0.25640869140625,0.51513671875,-0.37835693359375,0.7249755859375,1.02783203125,-0.32373046875,0.1240234375,-13.1875,52.625,-25.8125
0,41,43,117,44,32,103,73,40,0.26446533203125,0.50885009765625,-0.37469482421875,0.72845458984375,1.0009765625,-0.32421875,0.1591796875,-8.875,62.6875,-27.5
0,32,44,122,45,34,98,71,32,0.27227783203125,0.50140380859375,-0.369384765625,0.73345947265625,0.95947265625,-0.31982421875,0.19580078125,0.1875,72.875,-27.25
0,33,41,105,43,31,93,47,36,0.28021240234375,0.4931640625,-0.363037109375,0.73919677734375,0.94482421875,-0.271484375,0.22802734375,3.625,79.5625,-25.9375
0,26,36,124,38,31,85,56,32,0.288330078125,0.4840087890625,-0.35687255859375,0.7451171875,0.91162109375,-0.25537109375,0.23876953125,1.5,84.3125,-23.75
0,26,32,114,34,30,77,54,31,0.2965087890625,0.47369384765625,-0.350341796875,0.7515869140625,0.89404296875,-0.23974609375,0.2685546875,1.8125,91.3125,-21.0625
0,25,32,110,33,28,50,52,31,0.30462646484375,0.46148681640625,-0.3433837890625,0.75909423828125,0.8818359375,-0.22509765625,0.31103515625,2.125,101.125,-16.8125
0,26,38,116,40,28,43,53,31,0.31268310546875,0.44744873046875,-0.33782958984375,0.76666259765625,0.85693359375,-0.20068359375,0.32666015625,-6.8125,107.3125,-8.3125
0,23,41,140,44,29,41,54,25,0.32012939453125,0.4322509765625,-0.33502197265625,0.7735595703125,0.82421875,-0.203125,0.349609375,-20.6875,104.125,2.125
0,24,40,120,44,31,41,35,25,0.32586669921875,0.41705322265625,-0.33367919921875,0.780029296875,0.814453125,-0.25634765625,0.35986328125,-22.1875,99.5625,11.0
0,25,38,117,45,27,42,44,31,0.33001708984375,0.4019775390625,-0.33221435546875,0.78680419921875,0.82373046875,-0.26416015625,0.39794921875,-17.375,96.5625,18.25
0,26,38,119,51,29,42,45,30,0.33331298828125,0.386962890625,-0.330810546875,0.79351806640625,0.8232421875,-0.26025390625,0.4189453125,-15.875,95.5,23.4375
0,26,31,158,47,28,42,44,31,0.33538818359375,0.37158203125,-0.3306884765625,0.79998779296875,0.7890625,-0.2958984375,0.4423828125,-19.5625,90.875,30.375
0,26,29,167,58,28,41,44,32,0.3358154296875,0.35626220703125,-0.3323974609375,0.8060302734375,0.75830078125,-0.3291015625,0.4794921875,-24.875,81.9375,39.4375
0,27,31,170,62,31,57,59,33,0.3343505859375,0.341552734375,-0.33392333984375,0.8123779296875,0.76025390625,-0.36767578125,0.5234375,-17.75,75.5,46.625
0,26,32,170,61,35,56,50,27,0.33233642578125,0.32794189453125,-0.3336181640625,0.81890869140625,0.75341796875,-0.3515625,0.56689453125,-7.5625,72.4375,46.125
0,25,33,178,60,38,56,50,26,0.33074951171875,0.3153076171875,-0.33258056640625,0.824951171875,0.71337890625,-0.2919921875,0.62646484375,-7.5,65.875,43.0625
0,24,33,151,62,37,56,50,26,0.3292236328125,0.302490234375,-0.33319091796875,0.830078125,0.67822265625,-0.32861328125,0.6484375,-17.4375,61.25,42.625
0,23,31,126,52,39,56,50,24,0.32794189453125,0.28985595703125,-0.3359375,0.833984375,0.66162109375,-0.3955078125,0.6455078125,-27.1875,55.25,40.0625
0,22,29,124,58,38,51,46,21,0.32684326171875,0.2781982421875,-0.339599609375,0.83685302734375,0.6474609375,-0.4482421875,0.64453125,-30.1875,48.375,35.125
0,23,30,148,66,34,54,56,24,0.325927734375,0.26788330078125,-0.343017578125,0.8392333984375,0.59423828125,-0.4736328125,0.66259765625,-27.5625,39.6875,28.8125
0,24,30,142,62,29,65,55,24,0.3251953125,0.25927734375,-0.34625244140625,0.84088134765625,0.55712890625,-0.50244140625,0.67138671875,-24.875,29.4375,21.1875
0,24,25,125,59,35,65,54,23,0.32464599609375,0.25335693359375,-0.35113525390625,0.84088134765625,0.55078125,-0.49267578125,0.6552734375,-31.8125,12.5,15.375
0,24,28,121,56,93,84,56,27,0.32427978515625,0.250244140625,-0.357421875,0.83929443359375,0.5869140625,-0.5263671875,0.66845703125,-36.4375,-4.875,8.125
0,27,31,125,45,98,81,53,27,0.32489013671875,0.248779296875,-0.3643798828125,0.83648681640625,0.57568359375,-0.5322265625,0.67919921875,-41.125,-15.375,-1.375
0,26,31,95,40,99,78,44,26,0.3265380859375,0.2491455078125,-0.37152099609375,0.83258056640625,0.5712890625,-0.50390625,0.658203125,-44.0,-23.75,-10.6875
0,25,34,95,42,101,69,44,26,0.32916259765625,0.25115966796875,-0.37921142578125,0.82745361328125,0.62548828125,-0.51171875,0.62255859375,-46.9375,-29.125,-19.0
0,26,34,111,48,101,70,46,27,0.33245849609375,0.25408935546875,-0.38720703125,0.821533203125,0.66357421875,-0.5302734375,0.6015625,-48.5,-32.1875,-25.1875
0,28,35,146,51,57,54,45,29,0.33538818359375,0.2579345703125,-0.39520263671875,0.8153076171875,0.68017578125,-0.54052734375,0.54345703125,-45.375,-35.9375,-25.875
0,27,32,146,53,46,52,52,29,0.33709716796875,0.262939453125,-0.4024658203125,0.8094482421875,0.68701171875,-0.51123046875,0.517578125,-38.0625,-41.5625,-22.0625
0,28,31,150,48,44,51,52,29,0.33843994140625,0.2691650390625,-0.4080810546875,0.80401611328125,0.69677734375,-0.43212890625,0.52392578125,-30.375,-45.5,-20.9375
0,29,28,150,50,44,74,53,30,0.34002685546875,0.2752685546875,-0.4129638671875,0.79876708984375,0.68896484375,-0.38525390625,0.53271484375,-29.4375,-44.0625,-21.0625
0,28,28,155,46,42,77,53,30,0.3424072265625,0.280029296875,-0.41748046875,0.793701171875,0.6904296875,-0.390625,0.56396484375,-32.25,-37.75,-21.875
0,27,28,132,41,34,72,53,26,0.34490966796875,0.283447265625,-0.42108154296875,0.78955078125,0.70849609375,-0.42333984375,0.5732421875,-28.125,-29.0625,-20.75
0,27,27,132,45,37,70,38,27,0.34710693359375,0.286376953125,-0.4224853515625,0.7867431640625,0.7080078125,-0.390625,0.5859375,-17.3125,-22.125,-17.4375
0,24,26,125,48,36,68,38,27,0.349365234375,0.28851318359375,-0.42266845703125,0.78485107421875,0.6953125,-0.36962890625,0.5673828125,-10.875,-14.3125,-15.8125
